mean,std,min,max,median,label,record
-0.30979166666666663,0.16913102559685625,-0.535,0.94,-0.32,0,100
-0.3323888888888889,0.1535500782911226,-0.57,0.96,-0.345,0,100
-0.33295833333333336,0.14579737056575776,-0.645,0.86,-0.35,0,100
-0.3319583333333333,0.13820972765852788,-0.565,0.82,-0.3375,0,100
-0.32575000000000004,0.14692399301074763,-0.545,0.885,-0.33,0,100
-0.3028194444444445,0.1556823088490797,-0.535,0.945,-0.32,0,100
-0.33158333333333334,0.15078265723292655,-0.57,0.875,-0.365,1,100
-0.3557916666666666,0.16134202262240574,-0.575,0.885,-0.365,0,100
-0.33390277777777777,0.15001056997223583,-0.585,0.89,-0.3475,0,100
-0.30875,0.14667317693884366,-0.545,0.925,-0.3225,0,100
-0.29048611111111106,0.13750393863606997,-0.53,0.865,-0.31,0,100
-0.313,0.14060197959725412,-0.54,0.835,-0.315,0,100
-0.2932222222222222,0.15129223214088963,-0.515,0.935,-0.31,0,100
-0.2948333333333334,0.14921870600639256,-0.575,0.89,-0.31,0,100
-0.3235694444444444,0.14298881331427535,-0.565,0.795,-0.33,0,100
-0.3424027777777778,0.15021555435460646,-0.555,0.85,-0.35,0,100
-0.3204444444444444,0.14916041782897224,-0.555,0.905,-0.34,0,100
-0.2994027777777778,0.1367966515714944,-0.545,0.825,-0.31,0,100
-0.31605555555555553,0.17661908863182316,-0.57,0.97,-0.335,0,100
-0.32763888888888887,0.14836322784485115,-0.56,0.895,-0.345,0,100
-0.30202777777777773,0.1610759803652217,-0.535,0.975,-0.315,0,100
-0.31133333333333335,0.14931798656260775,-0.575,0.875,-0.33,0,100
-0.3306527777777778,0.1499932553782023,-0.585,0.88,-0.34,0,100
-0.3210138888888889,0.15204764357993147,-0.585,0.935,-0.345,0,100
-0.28700000000000003,0.18563412341963903,-0.575,1.05,-0.31,0,100
-0.3128611111111111,0.14679069618901028,-0.58,0.88,-0.325,0,100
-0.33954166666666663,0.154330987878146,-0.565,0.92,-0.35,0,100
-0.36309722222222224,0.1656546071836604,-0.645,0.955,-0.375,0,100
-0.39740277777777777,0.153457799096022,-0.665,0.845,-0.41,0,100
-0.42926388888888894,0.14723026117989046,-0.68,0.725,-0.43,0,100
-0.42327777777777775,0.15660089241818784,-0.67,0.83,-0.43,0,100
-0.3735138888888889,0.18827676090263412,-0.605,1.045,-0.405,0,100
-0.35258333333333336,0.1451655903136522,-0.605,0.855,-0.37,0,100
-0.37444444444444447,0.14394915083004609,-0.655,0.795,-0.385,0,100
-0.380875,0.15760313532379008,-0.62,0.855,-0.39,0,100
-0.36225,0.16498381654641836,-0.66,0.955,-0.375,0,100
-0.36595833333333333,0.15877696074647885,-0.63,0.855,-0.385,0,100
-0.3870416666666666,0.1447423417183483,-0.645,0.795,-0.4,0,100
-0.3658888888888889,0.15565288621690998,-0.625,0.885,-0.38,0,100
-0.3387638888888889,0.1734136426979303,-0.6,1.05,-0.355,0,100
-0.349375,0.13841849160948275,-0.615,0.85,-0.37,0,100
-0.39749999999999996,0.16370790383416975,-0.67,0.84,-0.405,0,100
-0.41100000000000003,0.15425438945672398,-0.64,0.85,-0.425,0,100
-0.38504166666666667,0.16824687858256918,-0.65,0.93,-0.4,0,100
-0.3751388888888889,0.1506388530333721,-0.695,0.825,-0.39,0,100
-0.3777222222222223,0.14409711445779103,-0.615,0.835,-0.3875,0,100
-0.34284722222222225,0.15642806828647957,-0.595,0.93,-0.355,0,100
-0.3247083333333333,0.15249084102732932,-0.585,0.925,-0.335,0,100
-0.35333333333333333,0.14126069281060932,-0.6,0.77,-0.365,0,100
-0.40027777777777784,0.1460277011603375,-0.64,0.77,-0.4,0,100
-0.36272222222222217,0.1527341755962356,-0.615,0.875,-0.395,0,100
-0.3271388888888889,0.1476275630651106,-0.595,0.85,-0.34,0,100
-0.33722222222222226,0.14288760367488362,-0.605,0.79,-0.345,0,100
-0.3514583333333333,0.1456385306065061,-0.59,0.82,-0.36,0,100
-0.3359583333333333,0.17750504198629272,-0.595,1.02,-0.355,0,100
-0.33602777777777776,0.17624257054650416,-0.595,0.99,-0.36,0,100
-0.37595833333333334,0.1441752827386781,-0.63,0.765,-0.38,0,100
-0.3492638888888889,0.1482797649579593,-0.595,0.86,-0.37,0,100
-0.3015,0.15218674566320012,-0.57,0.95,-0.315,0,100
-0.2870138888888889,0.1878904448117126,-0.535,1.02,-0.315,0,100
-0.3546944444444445,0.1445377342973193,-0.605,0.81,-0.36,0,100
-0.3632222222222222,0.1509880626464503,-0.645,0.815,-0.3775,0,100
-0.35980555555555555,0.145065467872736,-0.585,0.805,-0.37,0,100
-0.37787500000000007,0.1491168387447314,-0.65,0.77,-0.39,0,100
-0.38227777777777777,0.14758078975995773,-0.62,0.83,-0.405,0,100
-0.30491666666666667,0.16040398218248822,-0.57,0.97,-0.335,0,100
-0.2640694444444444,0.1647566662273731,-0.53,0.995,-0.28,0,100
-0.280375,0.13832956194658225,-0.535,0.83,-0.285,0,100
-0.28081944444444445,0.14443936890121145,-0.515,0.925,-0.2925,0,100
-0.2352222222222222,0.150979967602606,-0.47,1.03,-0.255,0,100
-0.2125416666666667,0.14386625130269048,-0.455,0.97,-0.225,0,100
-0.23493055555555556,0.14613704815732323,-0.475,0.89,-0.24,0,100
-0.24173611111111112,0.15723248825435004,-0.5,1.0,-0.255,0,100
-0.21145833333333333,0.15009403880937813,-0.475,1.045,-0.23,0,100
-0.22408333333333333,0.14696510829293993,-0.495,0.925,-0.24,0,100
-0.2910833333333333,0.1406312899827852,-0.545,0.85,-0.295,0,100
-0.30418055555555557,0.1446190711248855,-0.555,0.91,-0.315,0,100
-0.28154166666666663,0.14885553562468248,-0.53,0.99,-0.295,0,100
-0.2791527777777778,0.13777312870180436,-0.535,0.875,-0.295,0,100
-0.29375,0.14837628123569258,-0.545,0.885,-0.305,0,100
-0.2835972222222222,0.15328501591282517,-0.545,0.925,-0.3,0,100
-0.2580138888888889,0.1585599687688783,-0.52,0.99,-0.275,0,100
-0.2746527777777778,0.14143885209224813,-0.515,0.88,-0.29,0,100
-0.33477777777777773,0.1474654594418471,-0.58,0.855,-0.34,0,100
-0.3182777777777777,0.197905225790179,-0.575,1.12,-0.345,0,100
-0.326375,0.14705908086170294,-0.59,0.895,-0.34,0,100
-0.33108333333333334,0.14541680993307174,-0.585,0.835,-0.345,0,100
-0.3182777777777778,0.16533116784722837,-0.56,0.96,-0.345,0,100
-0.29825,0.1597667353431941,-0.615,0.955,-0.31,0,100
-0.317625,0.14900451498565775,-0.565,0.86,-0.335,0,100
-0.36704166666666665,0.14541630253058516,-0.605,0.82,-0.375,0,100
-0.34270833333333334,0.1588538319668605,-0.59,0.955,-0.36,0,100
-0.29743055555555553,0.15834384407120763,-0.57,0.96,-0.32,0,100
-0.27415277777777775,0.13975341972780947,-0.53,0.895,-0.295,0,100
-0.323875,0.17195703092956424,-0.595,0.94,-0.335,0,100
-0.3525694444444444,0.1669480812831816,-0.655,0.925,-0.365,0,100
-0.35936111111111113,0.15678189960327016,-0.635,0.89,-0.375,0,100
-0.35956944444444444,0.1398636068132181,-0.63,0.76,-0.37,0,100
-0.380875,0.14298649290327312,-0.67,0.78,-0.385,0,100
-0.35777777777777775,0.15138318032050527,-0.63,0.895,-0.38,0,100
-0.28956944444444443,0.17766938915901018,-0.56,1.035,-0.32,0,100
-0.2790138888888889,0.1635421703224139,-0.555,0.955,-0.295,0,100
-0.30170833333333336,0.15198340895381385,-0.545,0.925,-0.3075,0,100
-0.28609722222222217,0.15842358477987478,-0.535,1.01,-0.3,0,100
-0.2906388888888889,0.14246347539277443,-0.545,0.875,-0.305,0,100
-0.3023472222222222,0.14830422558247383,-0.565,0.92,-0.31,0,100
-0.2763055555555555,0.152533569974402,-0.54,0.99,-0.29,0,100
-0.28384722222222225,0.16098694389109655,-0.58,0.97,-0.295,0,100
-0.3302222222222222,0.16229587369148962,-0.61,0.87,-0.34,0,100
-0.35298611111111106,0.16576895677213205,-0.635,0.915,-0.36,0,100
-0.32531944444444444,0.19750519166094013,-0.615,1.08,-0.35,0,100
-0.334625,0.1620345845713878,-0.64,0.92,-0.355,0,100
-0.3684583333333333,0.16666349476148373,-0.65,0.89,-0.38,0,100
-0.34859722222222217,0.1505532998754762,-0.59,0.935,-0.375,0,100
-0.2884305555555555,0.1824371144614623,-0.545,1.125,-0.315,0,100
-0.3026111111111111,0.14675040749096893,-0.59,0.905,-0.32,0,100
-0.3377222222222222,0.15744119027453307,-0.565,0.9,-0.35,0,100
-0.29355555555555557,0.16498483843547637,-0.56,1.035,-0.32,0,100
-0.27476388888888886,0.1544403420468344,-0.545,1.0,-0.29,0,100
-0.3009722222222222,0.15126925701306249,-0.58,0.895,-0.31,0,100
-0.31795833333333334,0.14905931309195156,-0.555,0.925,-0.335,0,100
-0.27826388888888887,0.1599816823764135,-0.525,1.03,-0.295,0,100
-0.28070833333333334,0.15109732307908924,-0.565,0.97,-0.295,0,100
-0.30188888888888893,0.1802530286042031,-0.56,1.0,-0.3175,0,100
-0.3333055555555555,0.15835891362563512,-0.59,0.94,-0.345,0,100
-0.31261111111111106,0.15901865330446435,-0.585,0.985,-0.33,0,100
-0.3112083333333333,0.14488404726807497,-0.57,0.89,-0.325,0,100
-0.3351111111111111,0.14227267985139933,-0.59,0.855,-0.345,0,100
-0.315375,0.152023612703568,-0.555,0.92,-0.345,0,100
-0.27973611111111113,0.15099346868284252,-0.52,0.995,-0.295,0,100
-0.29618055555555556,0.14280594120741544,-0.555,0.865,-0.31,0,100
-0.348625,0.16030738160553376,-0.62,0.865,-0.3575,0,100
-0.3458055555555556,0.15108511571745917,-0.605,0.89,-0.375,0,100
-0.2615,0.15017064367652627,-0.555,0.965,-0.29,0,100
-0.26365277777777774,0.14305371560305416,-0.52,0.875,-0.28,0,100
-0.3414583333333333,0.1484017573926341,-0.625,0.82,-0.35,0,100
-0.33270833333333333,0.14801449229908387,-0.575,0.92,-0.36,0,100
-0.30780555555555555,0.14736261387860833,-0.565,0.87,-0.32,0,100
-0.33755555555555555,0.14534249673796268,-0.6,0.805,-0.355,0,100
-0.3814027777777778,0.15061924583035918,-0.63,0.82,-0.385,0,100
-0.32561111111111113,0.17185802890399227,-0.615,0.975,-0.355,0,100
-0.30995833333333334,0.13968938135695527,-0.585,0.875,-0.325,0,100
-0.3705416666666666,0.14840980589607652,-0.62,0.8,-0.3825,0,100
-0.39223611111111106,0.15127261016085014,-0.625,0.84,-0.41,0,100
-0.3590138888888889,0.174981149227214,-0.62,0.965,-0.375,0,100
-0.367,0.17962584570279533,-0.635,0.91,-0.385,0,100
-0.3954305555555555,0.15682091930933414,-0.645,0.815,-0.41,0,100
-0.34537500000000004,0.1536290117910315,-0.605,0.91,-0.37,0,100
-0.3129166666666667,0.14915165194451513,-0.57,0.89,-0.335,0,100
-0.3327638888888889,0.16429626805252653,-0.6,0.88,-0.35,0,100
-0.3551388888888889,0.14347321716337819,-0.615,0.86,-0.37,0,100
-0.30574999999999997,0.16066569415334991,-0.605,0.98,-0.32,0,100
-0.29801388888888886,0.15021655599829087,-0.555,0.935,-0.315,0,100
-0.3225972222222222,0.14664627317708553,-0.575,0.855,-0.3325,0,100
-0.33638888888888885,0.14597617343209315,-0.595,0.85,-0.355,0,100
-0.298375,0.15674399133441907,-0.545,0.96,-0.315,0,100
-0.3404722222222222,0.14029403371156496,-0.6,0.795,-0.35,0,100
-0.38108333333333333,0.143919127560508,-0.675,0.825,-0.38,0,100
-0.35268055555555555,0.1670694155790149,-0.59,0.955,-0.37,0,100
-0.36994444444444446,0.1311794666445012,-0.64,0.745,-0.385,0,100
-0.41712499999999997,0.14810984451300552,-0.675,0.72,-0.42,0,100
-0.38891666666666663,0.14847069950367686,-0.645,0.785,-0.425,0,100
-0.32768055555555553,0.17850800062904815,-0.62,0.965,-0.35,0,100
-0.34631944444444446,0.1648462942653692,-0.585,0.845,-0.37,0,100
-0.4070972222222222,0.14334923940059255,-0.65,0.735,-0.41,0,100
-0.37451388888888887,0.1440427206166779,-0.65,0.84,-0.4,0,100
-0.33675,0.14975950628331486,-0.585,0.92,-0.35,0,100
-0.32894444444444443,0.14511010081322628,-0.575,0.87,-0.345,0,100
-0.3396388888888889,0.15449157704076688,-0.575,0.875,-0.35,0,100
-0.30051388888888886,0.15592225565036819,-0.545,0.905,-0.325,0,100
-0.30359722222222224,0.15458292090890377,-0.57,0.91,-0.3125,0,100
-0.34694444444444444,0.155810505359064,-0.6,0.855,-0.36,0,100
-0.39081944444444444,0.14286972760650882,-0.65,0.815,-0.4025,0,100
-0.3256527777777778,0.1535711163274583,-0.565,0.94,-0.35,0,100
-0.30130555555555555,0.14374926462506485,-0.575,0.9,-0.315,0,100
-0.3445972222222222,0.15374281010489765,-0.615,0.8,-0.36,0,100
-0.36115277777777777,0.15178563646382487,-0.62,0.835,-0.39,0,100
-0.2795138888888889,0.15384100676560303,-0.515,0.975,-0.3,0,100
-0.2802777777777778,0.147143847062645,-0.545,0.9,-0.295,0,100
-0.32834722222222223,0.1406274787161518,-0.59,0.805,-0.335,0,100
-0.32615277777777774,0.14213009100841992,-0.59,0.845,-0.35,0,100
-0.27537500000000004,0.14636640073421528,-0.515,0.965,-0.285,0,100
-0.296125,0.13780893954836326,-0.555,0.86,-0.31,0,100
-0.34505555555555556,0.14809483531478598,-0.605,0.805,-0.35,0,100
-0.31370833333333337,0.15046016799398362,-0.55,0.885,-0.35,0,100
-0.26422222222222225,0.149746380240264,-0.485,0.935,-0.2775,0,100
-0.2775138888888889,0.1394034904169623,-0.505,0.835,-0.295,0,100
-0.32706944444444447,0.1498520869232288,-0.56,0.835,-0.33,0,100
-0.28070833333333334,0.14569797885237346,-0.53,0.94,-0.315,0,100
-0.2351111111111111,0.14394487327866134,-0.46,0.97,-0.245,0,100
-0.2690416666666666,0.17613358547010718,-0.515,0.935,-0.295,0,100
-0.3427777777777778,0.14165021690988436,-0.565,0.78,-0.35,0,100
-0.29322222222222216,0.15506506002161213,-0.565,0.89,-0.33,0,100
-0.25094444444444447,0.15015574219316505,-0.485,0.965,-0.265,0,100
-0.27361111111111114,0.1781755965610233,-0.49,0.97,-0.2925,0,100
-0.3253611111111111,0.14378275525902454,-0.565,0.845,-0.33,0,100
-0.2970277777777778,0.15710682602595796,-0.535,0.975,-0.31,0,100
-0.3145972222222222,0.14334705939337716,-0.595,0.84,-0.325,0,100
-0.33873611111111107,0.16910015055643762,-0.58,0.87,-0.36,0,100
-0.33326388888888886,0.15013549371739326,-0.59,0.83,-0.3625,0,100
-0.27486111111111106,0.1474707415006971,-0.49,0.94,-0.29,0,100
-0.2725,0.14106096002950091,-0.485,0.87,-0.2925,0,100
-0.320125,0.14023115217977306,-0.565,0.795,-0.325,0,100
-0.286875,0.1437857141625072,-0.495,0.9,-0.32,0,100
-0.2519583333333334,0.14734355521667342,-0.485,0.965,-0.265,0,100
-0.28994444444444445,0.13576070541877155,-0.56,0.81,-0.305,0,100
-0.35259722222222223,0.16828585631813622,-0.595,0.825,-0.37,0,100
-0.33134722222222224,0.1785343228534177,-0.585,0.915,-0.375,0,100
-0.2864027777777778,0.14615314073888216,-0.515,0.9,-0.3075,0,100
-0.30218055555555556,0.13641657263170134,-0.53,0.805,-0.315,0,100
-0.3603611111111111,0.14090632285666835,-0.57,0.745,-0.365,0,100
-0.32823611111111106,0.14428275605902338,-0.555,0.835,-0.355,0,100
-0.2716388888888889,0.1535386583201945,-0.515,0.97,-0.295,0,100
-0.2759305555555555,0.15084956877529135,-0.515,0.875,-0.285,0,100
-0.311625,0.15954426741155223,-0.56,0.885,-0.315,0,100
-0.2649861111111111,0.14718256737953753,-0.51,0.94,-0.285,0,100
-0.2270972222222222,0.1861297456467025,-0.47,1.015,-0.255,0,100
-0.3051111111111111,0.1383016585780232,-0.55,0.785,-0.3175,0,100
-0.32795833333333335,0.1354506303561888,-0.565,0.805,-0.34,0,100
-0.31354166666666666,0.15012179661676198,-0.55,0.89,-0.325,0,100
-0.35097222222222224,0.13950766329232223,-0.6,0.77,-0.36,0,100
-0.37558333333333327,0.15250116119776488,-0.655,0.8,-0.38,0,100
-0.316375,0.14947588411029905,-0.56,0.92,-0.345,0,100
-0.2690416666666667,0.13955628469267237,-0.51,0.91,-0.285,0,100
-0.29527777777777775,0.14070973098923092,-0.56,0.815,-0.315,0,100
-0.3604444444444444,0.14400404015251417,-0.585,0.805,-0.36,0,100
-0.31220833333333337,0.1874308715159331,-0.55,1.02,-0.34,0,100
-0.3181111111111111,0.14905829914234858,-0.555,0.89,-0.325,0,100
-0.32229166666666664,0.14061999991110796,-0.59,0.78,-0.34,0,100
-0.33784722222222224,0.16047807566786726,-0.52,1.015,-0.355,1,100
-0.3035416666666667,0.14726921092377424,-0.515,0.91,-0.33,0,100
-0.30006944444444444,0.16944659322408023,-0.58,0.94,-0.315,0,100
-0.36047222222222225,0.15310961688917724,-0.645,0.78,-0.375,0,100
-0.4019583333333333,0.15227482807046241,-0.65,0.8,-0.41,0,100
-0.3282777777777778,0.15264230357114694,-0.565,0.955,-0.355,0,100
-0.28568055555555555,0.1473361449947486,-0.565,0.925,-0.305,0,100
-0.29462499999999997,0.14586641886595342,-0.535,0.86,-0.3025,0,100
-0.2750694444444445,0.14582307834313857,-0.505,0.925,-0.305,0,100
-0.27,0.17047319763268098,-0.54,1.035,-0.28,0,100
-0.29583333333333334,0.13889444433333778,-0.54,0.87,-0.31,0,100
-0.3362222222222222,0.14388182093322882,-0.58,0.855,-0.34,0,100
-0.2955833333333333,0.14456762642829515,-0.53,0.925,-0.315,0,100
-0.27315277777777774,0.14714077346033685,-0.54,0.95,-0.29,0,100
-0.2987777777777778,0.1444141634926573,-0.55,0.825,-0.315,0,100
-0.34797222222222224,0.1517162897045943,-0.605,0.82,-0.35,0,100
-0.31422222222222224,0.15146261201863045,-0.555,0.935,-0.33,0,100
-0.30365277777777777,0.15423621491817008,-0.555,0.94,-0.32,0,100
-0.3227638888888889,0.13783418914038584,-0.58,0.825,-0.325,0,100
-0.3259444444444444,0.14430560635225284,-0.57,0.875,-0.34,0,100
-0.2529722222222222,0.16983545731598096,-0.49,1.08,-0.28,0,100
-0.2750416666666667,0.14516393391036678,-0.53,0.915,-0.285,0,100
-0.3483888888888889,0.15026149018327606,-0.615,0.795,-0.365,0,100
-0.3660833333333333,0.1480618067264854,-0.62,0.84,-0.39,0,100
-0.2983472222222222,0.1743399584243241,-0.62,1.025,-0.325,0,100
-0.28301388888888884,0.1457471643573551,-0.545,0.92,-0.3,0,100
-0.35262499999999997,0.14677878645355322,-0.61,0.795,-0.365,0,100
-0.3451666666666667,0.15206623191520494,-0.61,0.88,-0.38,0,100
-0.3403888888888889,0.1633137365416941,-0.605,0.99,-0.375,1,100
-0.34070833333333334,0.14537494028851358,-0.555,0.84,-0.35,0,100
-0.40462499999999996,0.1471712378961626,-0.655,0.76,-0.405,0,100
-0.351625,0.17120710634751377,-0.59,0.91,-0.395,0,100
-0.29704166666666665,0.15228513437882824,-0.56,0.94,-0.31,0,100
-0.30847222222222226,0.1437784727572075,-0.56,0.85,-0.325,0,100
-0.36893055555555554,0.14571626981425323,-0.61,0.82,-0.37,0,100
-0.32455555555555554,0.15368328623873123,-0.56,0.92,-0.35,0,100
-0.30445833333333333,0.17390186708313402,-0.56,0.965,-0.325,0,100
-0.36148611111111106,0.14298484700752534,-0.61,0.785,-0.37,0,100
-0.398875,0.14892829533966265,-0.65,0.805,-0.415,0,100
-0.33726388888888886,0.15321580577875152,-0.59,0.93,-0.36,0,100
-0.3185138888888889,0.14669251600386166,-0.595,0.895,-0.335,0,100
-0.36793055555555554,0.1719506814296931,-0.62,0.875,-0.385,0,100
-0.4042083333333333,0.14570612904633307,-0.655,0.81,-0.4175,0,100
-0.3824305555555556,0.15309218595242333,-0.635,0.885,-0.395,0,100
-0.3980138888888888,0.14750381285613864,-0.68,0.79,-0.415,0,100
-0.4506527777777778,0.14627952310960288,-0.695,0.69,-0.46,0,100
-0.44379166666666664,0.14957903313224677,-0.69,0.79,-0.475,0,100
-0.3541111111111111,0.1474850798061692,-0.6,0.895,-0.38,0,100
-0.3516666666666666,0.13864973855006002,-0.61,0.815,-0.365,0,100
-0.4188611111111112,0.17674002451463022,-0.665,0.865,-0.435,0,100
-0.41500000000000004,0.17358435349356166,-0.66,0.915,-0.445,0,100
-0.3706388888888889,0.15954277600864042,-0.61,0.88,-0.4,0,100
-0.3697222222222223,0.14685851299637406,-0.615,0.75,-0.38,0,100
-0.3985555555555556,0.1759943882382561,-0.66,0.875,-0.42,0,100
-0.3339583333333333,0.15097676766641946,-0.56,0.925,-0.355,0,100
-0.315,0.155289156808266,-0.57,0.91,-0.3325,0,100
-0.3610138888888889,0.1397423713934121,-0.605,0.77,-0.375,0,100
-0.3934861111111111,0.14678688189340233,-0.665,0.82,-0.405,0,100
-0.3418888888888889,0.15549442251122314,-0.57,0.91,-0.36,0,100
-0.3120138888888889,0.14491582739411524,-0.585,0.88,-0.335,0,100
-0.32230555555555557,0.1466632233392097,-0.565,0.8,-0.33,0,100
-0.33299999999999996,0.153743653888904,-0.605,0.88,-0.355,0,100
-0.304,0.15075449136482358,-0.565,0.915,-0.315,0,100
-0.3510138888888889,0.14711064364540533,-0.665,0.785,-0.37,0,100
-0.3944166666666667,0.1475482736447823,-0.655,0.815,-0.4025,0,100
-0.329875,0.14911283362869135,-0.585,0.88,-0.355,0,100
-0.2913888888888889,0.1406996955255684,-0.54,0.85,-0.315,0,100
-0.3277638888888889,0.14617602526630116,-0.57,0.795,-0.335,0,100
-0.3217083333333333,0.15832872252058375,-0.58,0.93,-0.345,0,100
-0.26949999999999996,0.19519050523356235,-0.515,1.14,-0.29,0,100
-0.3274027777777778,0.14811028733516848,-0.585,0.83,-0.34,0,100
-0.3885416666666667,0.15213306835172657,-0.655,0.825,-0.39,0,100
-0.3379861111111111,0.1568395759522339,-0.575,0.925,-0.365,0,100
-0.3280972222222222,0.14745452780454632,-0.595,0.875,-0.345,0,100
-0.37190277777777775,0.15024352081816877,-0.62,0.775,-0.38,0,100
-0.3317361111111111,0.149950361514102,-0.62,0.89,-0.36,0,100
-0.29256944444444444,0.1685444077971481,-0.56,0.96,-0.31,0,100
-0.3094722222222222,0.13860164463332217,-0.57,0.855,-0.315,0,100
-0.301125,0.14442048345600655,-0.555,0.91,-0.325,0,100
-0.2376527777777778,0.1545382153135073,-0.5,1.015,-0.255,0,100
-0.21894444444444447,0.14574043602020006,-0.49,0.955,-0.235,0,100
-0.28331944444444446,0.1500408117062459,-0.52,0.875,-0.29,0,100
-0.2811666666666667,0.14982591750279906,-0.52,0.935,-0.31,0,100
-0.24940277777777778,0.15192282943453583,-0.505,0.99,-0.265,0,100
-0.27116666666666667,0.15062010711278445,-0.545,0.88,-0.29,0,100
-0.30494444444444446,0.14207244717718343,-0.555,0.86,-0.315,0,100
-0.23255555555555554,0.17692825671636328,-0.485,1.095,-0.27,0,100
-0.19994444444444445,0.14735113852526338,-0.485,1.015,-0.215,0,100
-0.22575000000000003,0.16025715012649722,-0.495,0.94,-0.245,0,100
-0.2971388888888889,0.15019665863604323,-0.555,0.87,-0.295,0,100
-0.266125,0.1502180764292737,-0.51,0.975,-0.29,0,100
-0.23605555555555557,0.14456350862057601,-0.495,0.965,-0.255,0,100
-0.2625555555555556,0.1397134854790022,-0.565,0.835,-0.27,0,100
-0.2674583333333333,0.14575330542278164,-0.51,0.915,-0.29,0,100
-0.16761111111111113,0.19540908340336488,-0.405,1.245,-0.21,0,100
-0.19094444444444447,0.14493656551985545,-0.445,0.98,-0.2,0,100
-0.2729722222222222,0.17915286553219031,-0.51,0.95,-0.3125,0,100
-0.35858333333333337,0.1488476803461997,-0.595,0.8,-0.365,0,100
-0.31104166666666666,0.15532076464708625,-0.57,0.945,-0.33,0,100
-0.2848333333333333,0.13829859001450448,-0.525,0.895,-0.305,0,100
-0.2906111111111111,0.1369794748975549,-0.545,0.83,-0.295,0,100
-0.271,0.14200342327642043,-0.52,0.9,-0.29,0,100
-0.22138888888888889,0.1737475463899943,-0.525,1.04,-0.24,0,100
-0.24409722222222222,0.1379032631676421,-0.49,0.87,-0.265,0,100
-0.3027222222222222,0.14146733252888988,-0.53,0.82,-0.31,0,100
-0.2970138888888889,0.14289142080766115,-0.59,0.885,-0.315,0,100
-0.26030555555555557,0.15413527958770584,-0.51,0.995,-0.28,0,100
-0.27347222222222217,0.13806912240515035,-0.52,0.87,-0.285,0,100
-0.32200000000000006,0.14129077582536423,-0.565,0.825,-0.325,0,100
-0.3014305555555556,0.1460696966813454,-0.54,0.91,-0.315,0,100
-0.26640277777777777,0.17428717200533517,-0.51,0.995,-0.29,0,100
-0.29086111111111107,0.13867060346530588,-0.555,0.785,-0.315,0,100
-0.34136111111111106,0.15633904623139802,-0.53,0.905,-0.375,1,100
-0.36225,0.1468197827648274,-0.595,0.85,-0.395,0,100
-0.28294444444444444,0.14982238455444583,-0.585,0.945,-0.3,0,100
-0.2832777777777778,0.14120003759660957,-0.54,0.845,-0.295,0,100
-0.32652777777777775,0.14299290699407885,-0.585,0.825,-0.325,0,100
-0.3195138888888889,0.1542224217247749,-0.605,0.935,-0.3275,0,100
-0.3213888888888889,0.17919655220173086,-0.57,0.955,-0.35,0,100
-0.3905277777777777,0.14688194165366486,-0.64,0.735,-0.3975,0,100
-0.3745555555555556,0.15262498420137227,-0.62,0.84,-0.41,0,100
-0.3064027777777778,0.15699050393452874,-0.55,0.96,-0.33,0,100
-0.30351388888888886,0.14307612513929968,-0.565,0.87,-0.315,0,100
-0.33836111111111106,0.14474914177020143,-0.625,0.855,-0.34,0,100
-0.3169027777777778,0.15373607974221984,-0.555,0.95,-0.33,0,100
-0.31229166666666663,0.1470580419709624,-0.565,0.86,-0.3325,0,100
-0.31729166666666664,0.1463375509547855,-0.575,0.825,-0.325,0,100
-0.2789305555555555,0.15347062027821562,-0.57,0.96,-0.315,0,100
-0.23577777777777775,0.153986220723932,-0.47,1.02,-0.2475,0,100
-0.2666527777777778,0.1703227458974923,-0.52,0.985,-0.29,0,100
-0.34900000000000003,0.14855825643684553,-0.59,0.815,-0.35,0,100
-0.3365416666666667,0.15126108200907315,-0.56,0.88,-0.35,0,100
-0.3185138888888889,0.15299083061263252,-0.56,0.91,-0.33,0,100
-0.3155138888888889,0.1457373963538105,-0.58,0.825,-0.325,0,100
-0.30374999999999996,0.15841522005301273,-0.565,0.92,-0.325,0,100
-0.22269444444444442,0.16581772446549126,-0.485,1.08,-0.25,0,100
-0.23097222222222225,0.13955743264395787,-0.44,0.82,-0.25,0,100
-0.31404166666666666,0.12456808016993046,-0.49,0.605,-0.335,0,100
-0.35602777777777783,0.13099321146768364,-0.535,0.655,-0.365,0,100
-0.28868055555555555,0.22759337683128905,-0.55,1.205,-0.33,0,100
-0.29109722222222223,0.1886953864861906,-0.56,1.02,-0.32,0,100
-0.3319722222222222,0.14317287260726902,-0.57,0.795,-0.33,0,100
-0.2805694444444444,0.1629042686151124,-0.525,1.005,-0.315,0,100
-0.2509861111111111,0.15635984965737384,-0.52,1.035,-0.26,0,100
-0.31370833333333337,0.15271364247251198,-0.575,0.9,-0.33,0,100
-0.35811111111111116,0.15815529951737975,-0.58,0.89,-0.37,0,100
-0.31204166666666666,0.161033333117712,-0.565,1.005,-0.335,0,100
-0.28638888888888886,0.17301497651580755,-0.545,1.035,-0.305,0,100
-0.3262361111111111,0.15738862844136586,-0.565,0.87,-0.3275,0,100
-0.295875,0.15555053997370474,-0.54,0.97,-0.325,0,100
-0.2685138888888889,0.1603072564601036,-0.53,1.045,-0.2825,0,100
-0.29733333333333334,0.1458384760997972,-0.585,0.89,-0.31,0,100
-0.34195833333333336,0.147076552015533,-0.59,0.865,-0.35,0,100
-0.30416666666666664,0.1583565772412234,-0.56,0.975,-0.34,0,100
-0.23722222222222225,0.16052666983524908,-0.48,1.06,-0.26,0,100
-0.24373611111111113,0.15117686414112183,-0.515,0.925,-0.255,0,100
-0.28126388888888887,0.15327489765628033,-0.515,0.925,-0.285,0,100
-0.25240277777777775,0.1585528881024161,-0.505,1.025,-0.265,0,100
-0.249125,0.14995693247470163,-0.51,0.975,-0.265,0,100
-0.2898472222222222,0.14599197654154208,-0.535,0.88,-0.3,0,100
-0.3019861111111111,0.1605840462754936,-0.575,0.92,-0.31,0,100
-0.24991666666666668,0.16605301613239873,-0.465,1.06,-0.27,0,100
-0.19618055555555555,0.20048187271815937,-0.45,1.3,-0.22,0,100
-0.22018055555555555,0.1513381356056042,-0.47,0.985,-0.235,0,100
-0.27575,0.15035326456936896,-0.515,0.87,-0.2925,0,100
-0.2981388888888889,0.15805680286561147,-0.56,0.855,-0.315,0,100
-0.28480555555555553,0.13842904709722925,-0.565,0.84,-0.31,0,100
-0.27805555555555556,0.1422247721125583,-0.52,0.905,-0.285,0,100
-0.25729166666666664,0.1412983877296553,-0.5,0.95,-0.275,0,100
-0.23930555555555552,0.14498301039249092,-0.5,0.945,-0.25,0,100
-0.23909722222222218,0.15358793714588523,-0.495,0.975,-0.25,0,100
-0.25504166666666667,0.1459934775464682,-0.515,0.89,-0.265,0,100
-0.2971666666666667,0.1632109235178686,-0.585,0.865,-0.32,0,100
-0.3609305555555556,0.14916911789316412,-0.62,0.835,-0.365,0,100
-0.3075277777777778,0.14327663338046265,-0.575,0.865,-0.335,0,100
-0.24050000000000005,0.13297409939951127,-0.5,0.87,-0.26,0,100
-0.2534027777777778,0.13656049328271075,-0.5,0.85,-0.27,0,100
-0.30937500000000007,0.15040255589398888,-0.585,0.875,-0.315,0,100
-0.3308055555555555,0.14769117920031732,-0.61,0.82,-0.34,0,100
-0.3717083333333333,0.14401894527187117,-0.635,0.72,-0.38,0,100
-0.42531944444444447,0.14387917639356765,-0.725,0.68,-0.425,0,100
-0.38347222222222227,0.13729034240354981,-0.65,0.745,-0.415,0,100
-0.3155277777777778,0.1353765296643056,-0.64,0.775,-0.335,0,100
-0.2928611111111111,0.13288208072025065,-0.57,0.795,-0.3,0,100
-0.32093055555555555,0.14392912283374534,-0.595,0.845,-0.3275,0,100
-0.28911111111111104,0.14514088515373563,-0.55,0.88,-0.305,0,100
-0.29693055555555553,0.14406434966408518,-0.605,0.76,-0.3,0,100
-0.3549027777777778,0.14477157867580207,-0.67,0.755,-0.355,0,100
-0.33638888888888885,0.15130869435579147,-0.585,0.825,-0.365,0,100
-0.2747083333333334,0.13859557848286502,-0.555,0.83,-0.295,0,100
-0.25740277777777776,0.14570276628600798,-0.525,0.89,-0.27,0,100
-0.28208333333333335,0.15049213250015578,-0.6,0.855,-0.285,0,100
-0.2542638888888889,0.14100118134410117,-0.5,0.865,-0.255,0,100
-0.29091666666666666,0.13999055027631924,-0.565,0.765,-0.3025,0,100
-0.3543472222222222,0.14709002909426125,-0.61,0.795,-0.355,0,100
-0.3172083333333333,0.13642528861981565,-0.57,0.8,-0.345,0,100
-0.27261111111111114,0.1325460669976413,-0.525,0.8,-0.285,0,100
-0.3210972222222222,0.1590902224562303,-0.63,0.845,-0.335,0,100
-0.33295833333333336,0.13822409718159373,-0.605,0.775,-0.345,0,100
-0.29030555555555554,0.13644205515009017,-0.53,0.825,-0.295,0,100
-0.30679166666666663,0.1456653258424179,-0.55,0.82,-0.325,0,100
-0.3504305555555555,0.14564185776425914,-0.645,0.765,-0.355,0,100
-0.2914583333333334,0.1368612372583592,-0.545,0.825,-0.315,0,100
-0.27184722222222224,0.13500047939443918,-0.5,0.845,-0.285,0,100
-0.2984583333333334,0.13788148468682968,-0.55,0.825,-0.305,0,100
-0.2876944444444444,0.1338587189382988,-0.52,0.8,-0.295,0,100
-0.2956388888888889,0.14071990556061234,-0.535,0.825,-0.3125,0,100
-0.34223611111111113,0.13923875309214143,-0.6,0.755,-0.355,0,100
-0.3513194444444444,0.14423888618739486,-0.605,0.795,-0.365,0,100
-0.2669166666666667,0.14249198320529396,-0.52,0.885,-0.295,0,100
-0.24516666666666664,0.18669412000500832,-0.51,0.98,-0.265,0,100
-0.32026388888888896,0.18574250344193313,-0.49,0.995,-0.36,1,100
-0.484875,0.18139673657942873,-0.71,0.89,-0.515,0,100
-0.5120694444444444,0.17087546849394353,-0.775,0.8,-0.545,0,100
-0.34770833333333334,0.17187474747456197,-0.615,0.995,-0.3625,0,100
-0.28891666666666665,0.1717388804422445,-0.52,0.96,-0.3025,0,100
-0.29670833333333335,0.15903462564101498,-0.505,0.92,-0.31,0,100
-0.26656944444444447,0.15502229466801157,-0.5,0.975,-0.28,0,100
-0.2525277777777778,0.1528638621110502,-0.485,0.95,-0.265,0,100
-0.27398611111111115,0.1610599002662222,-0.475,0.935,-0.28,0,100
-0.29470833333333335,0.1571587517890394,-0.53,0.975,-0.305,0,100
-0.3594583333333333,0.1653814561601955,-0.635,0.875,-0.375,0,100
-0.38433333333333336,0.16214396894940825,-0.59,0.87,-0.395,0,100
-0.35961111111111116,0.16187997573267013,-0.585,0.91,-0.375,0,100
-0.33426388888888886,0.14839305848690754,-0.55,0.84,-0.34,0,100
-0.2896527777777778,0.2391398451698075,-0.515,1.155,-0.3175,0,100
-0.2995138888888889,0.1637023037453756,-0.51,0.95,-0.305,0,100
-0.294875,0.15202173981046263,-0.515,0.93,-0.305,0,100
-0.3485555555555555,0.14865600567986265,-0.55,0.83,-0.365,0,100
-0.3761666666666667,0.15746657493646776,-0.575,0.89,-0.3825,0,100
-0.3900138888888889,0.15148546804667765,-0.6,0.85,-0.4,0,100
-0.41201388888888885,0.1422123307920976,-0.635,0.72,-0.42,0,100
-0.40947222222222224,0.15962151172750133,-0.625,0.795,-0.42,0,100
-0.3479305555555556,0.16015039167996722,-0.58,0.885,-0.365,0,100
-0.3013472222222222,0.14644416453248413,-0.515,0.865,-0.31,0,100
-0.30877777777777776,0.14520877902583176,-0.53,0.785,-0.32,0,100
-0.32722222222222225,0.1431760010754268,-0.52,0.795,-0.33,0,100
-0.31233333333333335,0.15033887646838984,-0.535,0.925,-0.315,0,100
-0.3010555555555555,0.13909278367023864,-0.54,0.835,-0.31,0,100
-0.30186111111111114,0.15310447645276914,-0.555,0.865,-0.3,0,100
-0.2670416666666666,0.15046201417079774,-0.47,0.895,-0.285,0,100
-0.23229166666666667,0.14827605986994516,-0.49,0.915,-0.2425,0,100
-0.24998611111111113,0.14461755051932623,-0.485,0.825,-0.255,0,100
-0.29351388888888885,0.16986620495224042,-0.55,0.96,-0.3,0,100
-0.28980555555555554,0.14333320144266112,-0.53,0.895,-0.3,0,100
-0.29070833333333335,0.14189241204948988,-0.555,0.795,-0.295,0,100
-0.31577777777777777,0.1369502365238944,-0.535,0.775,-0.3175,0,100
-0.2715416666666667,0.14256937273365086,-0.545,0.87,-0.3,0,100
-0.23863888888888887,0.1420234043266926,-0.485,0.875,-0.24,0,100
-0.27668055555555554,0.13797300726237974,-0.525,0.795,-0.28,0,100
-0.28695833333333337,0.1723307895927674,-0.53,0.945,-0.305,0,100
-0.27049999999999996,0.1365391681695932,-0.52,0.795,-0.275,0,100
-0.2697222222222222,0.13017373243970518,-0.495,0.78,-0.2775,0,100
-0.27695833333333336,0.13704363026869298,-0.515,0.81,-0.285,0,100
-0.2504444444444444,0.139708813140531,-0.49,0.86,-0.255,0,100
-0.2554861111111111,0.12989087225816776,-0.52,0.79,-0.26,0,100
-0.24736111111111111,0.18371886021518158,-0.515,0.975,-0.26,0,100
-0.2854583333333333,0.14247513793836297,-0.525,0.825,-0.29,0,100
-0.2528333333333333,0.1379906397791773,-0.485,0.835,-0.26,0,100
-0.29105555555555557,0.13659600702730101,-0.53,0.755,-0.3,0,100
-0.32354166666666667,0.1419145808713428,-0.595,0.795,-0.32,0,100
-0.3219861111111112,0.18128097383279204,-0.555,0.92,-0.35,0,100
-0.2881666666666667,0.15810764617113804,-0.625,0.785,-0.335,0,100
-0.0846388888888889,0.14114662446819418,-0.35,0.96,-0.1,0,100
-0.2162361111111111,0.1902427172686656,-0.475,0.92,-0.28,0,100
-0.3535,0.1347640942948496,-0.6,0.695,-0.355,0,100
-0.36565277777777777,0.1435857428432207,-0.64,0.72,-0.38,0,100
-0.4006527777777778,0.13487876858314718,-0.635,0.695,-0.405,0,100
-0.38033333333333336,0.14755375668247525,-0.61,0.785,-0.405,0,100
-0.31945833333333334,0.14408060412876925,-0.56,0.795,-0.325,0,100
-0.3171666666666667,0.1338314653252781,-0.595,0.75,-0.33,0,100
-0.3507222222222222,0.14925102104826826,-0.605,0.825,-0.35,0,100
-0.3250138888888889,0.14835603693812954,-0.565,0.835,-0.345,0,100
-0.27855555555555556,0.14785690237607074,-0.55,0.855,-0.285,0,100
-0.29980555555555555,0.14083024048762563,-0.545,0.78,-0.315,0,100
-0.35643055555555553,0.15079270414019896,-0.595,0.82,-0.3525,0,100
-0.3126527777777778,0.14756064287477633,-0.525,0.86,-0.34,0,100
-0.25906944444444446,0.13153224429234167,-0.47,0.79,-0.26,0,100
-0.24816666666666667,0.1382483674808173,-0.515,0.88,-0.26,0,100
-0.31304166666666666,0.15802069462749352,-0.545,0.875,-0.32,0,100
-0.2942638888888889,0.15297358096666702,-0.57,0.925,-0.315,0,100
-0.25816666666666666,0.14647184029703456,-0.48,0.905,-0.265,0,100
-0.29711111111111116,0.1719964111023796,-0.545,0.96,-0.31,0,100
-0.30393055555555554,0.15485399273624825,-0.555,0.935,-0.325,0,100
-0.2411805555555556,0.1512937105240525,-0.475,0.985,-0.25,0,100
-0.23487500000000003,0.14540718092270716,-0.515,0.915,-0.245,0,100
-0.2913888888888889,0.19980063365734488,-0.555,1.025,-0.32,0,100
-0.3191111111111111,0.16118153633192914,-0.54,0.93,-0.335,0,100
-0.3009861111111111,0.1538548642440115,-0.545,0.875,-0.31,0,100
-0.2820972222222222,0.1928401871241099,-0.52,1.025,-0.305,0,100
-0.3409027777777778,0.15945943055299033,-0.585,0.865,-0.3325,0,100
-0.28829166666666667,0.1555967399597791,-0.52,0.95,-0.315,0,100
-0.25422222222222224,0.14607724575852005,-0.505,0.93,-0.255,0,100
-0.26641666666666663,0.15209579857591218,-0.54,0.895,-0.28,0,100
-0.33122222222222225,0.15390664759145237,-0.57,0.885,-0.325,0,100
-0.32204166666666667,0.15463150080648727,-0.56,0.88,-0.325,0,100
-0.336,0.14486286618730143,-0.575,0.825,-0.345,0,100
-0.3736666666666667,0.15023324458247508,-0.61,0.8,-0.375,0,100
-0.3407361111111111,0.19343696885086334,-0.585,0.98,-0.37,0,100
-0.3169027777777778,0.14570395782413492,-0.565,0.88,-0.33,0,100
-0.32005555555555554,0.14903997309529718,-0.54,0.88,-0.325,0,100
-0.3121111111111111,0.1487974532670685,-0.585,0.895,-0.33,0,100
-0.29379166666666673,0.1496621136556907,-0.57,0.85,-0.3025,0,100
-0.33493055555555556,0.14569205789275094,-0.59,0.825,-0.345,0,100
-0.38768055555555553,0.1511579220540272,-0.64,0.775,-0.38,0,100
-0.3473888888888889,0.1483431228563206,-0.615,0.82,-0.36,0,100
-0.30900000000000005,0.1438338161444195,-0.61,0.815,-0.32,0,100
-0.30204166666666665,0.15039322878337605,-0.535,0.865,-0.32,0,100
-0.34797222222222224,0.15215324623387494,-0.595,0.85,-0.345,0,100
-0.3237777777777778,0.1452427299980414,-0.575,0.835,-0.33,0,100
-0.30530555555555555,0.1355827585409747,-0.57,0.785,-0.315,0,100
-0.32475000000000004,0.14775756701810946,-0.63,0.795,-0.33,0,100
-0.2962361111111111,0.16270905296943336,-0.56,0.9,-0.325,0,100
-0.2591111111111111,0.1643604233549917,-0.575,0.985,-0.27,0,100
-0.30612500000000004,0.15906077956939046,-0.525,0.935,-0.31,0,100
-0.2805694444444444,0.16497944538545206,-0.52,0.985,-0.3,0,100
-0.23562499999999997,0.15610345906018724,-0.46,1.04,-0.24,0,100
-0.2891944444444444,0.16312458079034162,-0.53,0.945,-0.305,0,100
-0.28773611111111114,0.1741182542807199,-0.515,1.01,-0.315,0,100
-0.24263888888888888,0.18076990481729616,-0.475,1.09,-0.255,0,100
-0.26345833333333335,0.16138824285106879,-0.48,1.025,-0.275,0,100
-0.34181944444444445,0.17131909201423012,-0.585,0.855,-0.365,0,100
-0.3849722222222223,0.2015109572580651,-0.63,0.98,-0.4,0,100
-0.31955555555555554,0.18027894195823385,-0.59,0.995,-0.34,0,100
-0.3392361111111111,0.1624582419043562,-0.57,0.895,-0.375,0,100
-0.41805555555555557,0.17988606647981456,-0.65,0.9,-0.43,0,100
-0.37729166666666664,0.18685209818790427,-0.605,1.025,-0.375,0,100
-0.34797222222222224,0.17267358192572982,-0.555,0.99,-0.36,0,100
-0.3322361111111112,0.1596552268914658,-0.565,0.89,-0.355,0,100
-0.41670833333333335,0.17221937217623856,-0.65,0.835,-0.415,0,100
-0.3858194444444444,0.18149367347321635,-0.645,0.935,-0.4,0,100
-0.3424722222222222,0.15711018534616453,-0.58,0.885,-0.3425,0,100
-0.3419027777777778,0.17590142123440602,-0.6,0.945,-0.365,0,100
-0.39059722222222226,0.16442405032603133,-0.645,0.845,-0.39,0,100
-0.33370833333333333,0.17669437184490813,-0.6,1.0,-0.34,0,100
-0.28644444444444445,0.17313489353109815,-0.53,1.0,-0.295,0,100
-0.30280555555555555,0.15299615453490698,-0.545,0.885,-0.315,0,100
-0.3578194444444444,0.16392633223399883,-0.585,0.835,-0.355,0,100
-0.32658333333333334,0.17833253504494226,-0.55,1.01,-0.335,0,100
-0.3017638888888889,0.156626368314991,-0.545,0.95,-0.315,0,100
-0.32013888888888886,0.14511530908935408,-0.6,0.84,-0.3275,0,100
-0.36018055555555556,0.1568900292835088,-0.605,0.83,-0.3675,0,100
-0.35900000000000004,0.1808801014791597,-0.625,0.95,-0.37,0,100
-0.3292083333333333,0.16177143834400712,-0.56,0.93,-0.33,0,100
-0.38259722222222226,0.1691017658527142,-0.615,0.845,-0.39,0,100
-0.43444444444444447,0.17565503510581384,-0.675,0.86,-0.435,0,100
-0.38979166666666665,0.1805874624585611,-0.64,0.955,-0.395,0,100
-0.34531944444444446,0.16425453032724757,-0.58,0.925,-0.3525,0,100
-0.3246944444444444,0.14992559625887852,-0.56,0.885,-0.33,0,100
-0.29331944444444447,0.159426125907624,-0.515,0.91,-0.305,0,100
-0.2791527777777778,0.14175895618602238,-0.57,0.84,-0.28,0,100
-0.29520833333333335,0.14659050460949596,-0.54,0.835,-0.305,0,100
-0.31445833333333334,0.17992490235126185,-0.545,0.93,-0.33,0,100
-0.33829166666666666,0.153052046113224,-0.58,0.83,-0.35,0,100
-0.35681944444444447,0.14277539921819019,-0.6,0.76,-0.36,0,100
-0.34779166666666667,0.14247582031699274,-0.595,0.785,-0.36,0,100
-0.3139722222222222,0.146015787980294,-0.61,0.85,-0.33,0,100
-0.26566666666666666,0.14533142200578036,-0.5,0.9,-0.27,0,100
-0.28626388888888893,0.13592226056908366,-0.535,0.8,-0.295,0,100
-0.3549722222222223,0.1515095314403815,-0.605,0.765,-0.37,0,100
-0.37959722222222225,0.1439609958482411,-0.635,0.765,-0.395,0,100
-0.3305,0.1489370672465387,-0.575,0.81,-0.345,0,100
-0.30366666666666664,0.16594518840736408,-0.565,0.87,-0.315,0,100
-0.31172222222222223,0.14203904218971924,-0.575,0.845,-0.31,0,100
-0.2916527777777778,0.1365023564837519,-0.54,0.835,-0.3,0,100
-0.29297222222222224,0.1440261330667905,-0.59,0.8,-0.295,0,100
-0.31130555555555556,0.1977490440269693,-0.57,1.03,-0.325,0,100
-0.31380555555555556,0.13979982106260297,-0.57,0.81,-0.325,0,100
-0.283,0.14672167529032648,-0.595,0.82,-0.3,0,100
-0.29441666666666666,0.14225493059215127,-0.58,0.84,-0.325,1,100
-0.3172361111111111,0.1504781723794329,-0.565,0.84,-0.305,0,100
-0.26927777777777784,0.17075861961505634,-0.54,0.965,-0.285,0,100
-0.26416666666666666,0.144375090187562,-0.555,0.815,-0.28,0,100
-0.3068194444444444,0.1470004087663335,-0.565,0.845,-0.31,0,100
-0.31504166666666666,0.14021287758856768,-0.575,0.815,-0.32,0,100
-0.30104166666666665,0.16631783808085318,-0.56,0.9,-0.3175,0,100
-0.33581944444444445,0.14669160075827345,-0.585,0.795,-0.34,0,100
-0.32886111111111105,0.1470301656081684,-0.57,0.86,-0.34,0,100
-0.28570833333333334,0.17362031031183472,-0.53,0.975,-0.3025,0,100
-0.29248611111111117,0.16514345557184482,-0.535,0.92,-0.31,0,100
-0.35383333333333333,0.14720224183075473,-0.59,0.815,-0.36,0,100
-0.3547083333333333,0.14613392235853004,-0.595,0.825,-0.365,0,100
-0.3134166666666667,0.1493215908701752,-0.54,0.87,-0.32,0,100
-0.3079861111111111,0.14403958686721002,-0.54,0.795,-0.315,0,100
-0.3222361111111111,0.15401411308487606,-0.575,0.855,-0.325,0,100
-0.2606805555555555,0.14482612433045444,-0.51,0.915,-0.2725,0,100
-0.28515277777777776,0.14377757317412027,-0.54,0.86,-0.29,0,100
-0.3549861111111111,0.14668773457165885,-0.59,0.79,-0.37,0,100
-0.3903194444444444,0.1578284781362428,-0.645,0.865,-0.39,0,100
-0.3082361111111111,0.1606195031965258,-0.545,0.96,-0.33,0,100
-0.27627777777777773,0.1896357050169718,-0.55,1.05,-0.295,0,100
-0.26206944444444447,0.1571926742699411,-0.54,0.92,-0.28,0,100
-0.3022638888888889,0.18169862051206567,-0.55,1.045,-0.3,0,100
-0.2784861111111111,0.15696027390673267,-0.505,0.99,-0.295,0,100
-0.23947222222222225,0.16589194711402946,-0.505,0.99,-0.26,0,100
-0.29830555555555555,0.19095895711505426,-0.54,1.06,-0.32,0,100
-0.34629166666666666,0.16328591467286932,-0.56,0.97,-0.365,0,100
-0.31669444444444445,0.1734035626066874,-0.58,1.04,-0.315,0,100
-0.2842777777777778,0.1657848523959611,-0.515,1.02,-0.305,0,100
-0.2702361111111111,0.1541527464936749,-0.52,0.92,-0.29,0,100
-0.339125,0.17131881727579656,-0.575,0.93,-0.335,0,100
-0.31452777777777774,0.17015246204362183,-0.545,1.015,-0.33,0,100
-0.28456944444444443,0.14980411528141313,-0.525,0.935,-0.295,0,100
-0.3098194444444444,0.14944307039331145,-0.53,0.9,-0.33,0,100
-0.37454166666666666,0.16838200100927916,-0.63,0.91,-0.3725,0,100
-0.34902777777777777,0.16634560511028287,-0.56,0.965,-0.355,0,100
-0.3274444444444444,0.135053990118447,-0.525,0.755,-0.34,0,100
-0.3056388888888889,0.1470690791540148,-0.505,0.845,-0.315,0,100
-0.334125,0.17025185082204933,-0.575,0.925,-0.335,0,100
-0.28733333333333333,0.16396976347282244,-0.525,1.02,-0.3,0,100
-0.29290277777777773,0.14707888659210347,-0.53,0.93,-0.305,0,100
-0.3076388888888889,0.19743946368694293,-0.54,1.05,-0.325,0,100
-0.32281944444444444,0.16455591133486186,-0.55,0.965,-0.335,0,100
-0.2652222222222222,0.20092966031689233,-0.515,1.175,-0.285,0,100
-0.2621388888888889,0.1495070887910183,-0.505,0.9,-0.265,0,100
-0.26675,0.15369339518086725,-0.51,0.935,-0.275,0,100
-0.26965277777777774,0.17148357223897426,-0.535,1.025,-0.28,0,100
-0.21645833333333334,0.18845025408284516,-0.48,1.125,-0.24,0,100
-0.22822222222222222,0.1672013275982499,-0.51,1.04,-0.24,0,100
-0.25422222222222224,0.15144564685264902,-0.505,0.965,-0.26,0,100
-0.25094444444444447,0.15749496366629287,-0.49,1.04,-0.26,0,100
-0.20918055555555556,0.15301310096314635,-0.455,1.04,-0.225,0,100
-0.24747222222222223,0.16285090081133027,-0.495,0.945,-0.255,0,100
-0.3367222222222222,0.16178459807051937,-0.595,0.88,-0.34,0,100
-0.33704166666666663,0.15911669699905442,-0.6,0.925,-0.355,0,100
-0.32649999999999996,0.14478470606770283,-0.605,0.845,-0.33,0,100
-0.34145833333333336,0.15127705795621782,-0.595,0.855,-0.34,0,100
-0.33669444444444446,0.15292215148100763,-0.635,0.9,-0.345,0,100
-0.3193333333333333,0.14599552885086736,-0.565,0.89,-0.325,0,100
-0.34611111111111115,0.20503086187446917,-0.585,0.985,-0.375,0,100
-0.3704305555555556,0.15168459842611365,-0.625,0.83,-0.395,0,100
-0.2871944444444444,0.1711258989822088,-0.545,0.985,-0.31,0,100
-0.31251388888888887,0.15500492761482307,-0.55,0.875,-0.325,0,100
-0.3042638888888889,0.14737357982121826,-0.585,0.88,-0.335,0,100
-0.23562499999999997,0.15559102708168404,-0.475,1.01,-0.25,0,100
-0.26843055555555556,0.14709774021877134,-0.505,0.875,-0.28,0,100
-0.31431944444444443,0.1499968357433739,-0.56,0.87,-0.315,0,100
-0.2763055555555555,0.1455615218242873,-0.55,0.9,-0.295,0,100
-0.24127777777777779,0.14661374255564463,-0.505,0.93,-0.255,0,100
-0.2921666666666667,0.1476144565338293,-0.56,0.875,-0.295,0,100
-0.28994444444444445,0.14935368991544207,-0.535,0.905,-0.31,0,100
-0.2585277777777778,0.1402004489830961,-0.515,0.885,-0.265,0,100
-0.2910416666666667,0.17421438241909498,-0.565,0.94,-0.31,0,100
-0.3622916666666667,0.15029863212765593,-0.67,0.81,-0.36,0,100
-0.29368055555555556,0.150429461726242,-0.545,0.895,-0.315,0,100
-0.2818333333333333,0.1449548780368107,-0.525,0.855,-0.29,0,100
-0.3297638888888889,0.14727624205473683,-0.57,0.835,-0.33,0,100
-0.30006944444444444,0.1353552246650856,-0.55,0.82,-0.3275,0,100
-0.248125,0.1389020375720481,-0.51,0.91,-0.26,0,100
-0.31523611111111116,0.15303508067828722,-0.555,0.86,-0.33,0,100
-0.3602638888888889,0.15250273158351,-0.63,0.86,-0.37,0,100
-0.29009722222222223,0.14965118328616922,-0.54,0.91,-0.305,0,100
-0.3000555555555555,0.1428305025865827,-0.54,0.845,-0.31,0,100
-0.37165277777777783,0.16105417995560636,-0.625,0.825,-0.37,0,100
-0.3327777777777778,0.19587533040617544,-0.595,1.07,-0.3775,0,100
-0.23706944444444444,0.17077871699210395,-0.485,1.09,-0.255,0,100
-0.26568055555555553,0.16708371374760425,-0.5,0.91,-0.29,0,100
-0.4043472222222222,0.16385436959913027,-0.64,0.785,-0.4325,0,100
-0.4432777777777778,0.16675274628941417,-0.675,0.895,-0.475,0,100
-0.3472222222222222,0.1619629777845527,-0.59,0.935,-0.38,0,100
-0.2893194444444444,0.14306086761982048,-0.52,0.87,-0.31,0,100
-0.3486666666666667,0.16531375892190248,-0.61,0.855,-0.355,0,100
-0.3275416666666666,0.1711432098094718,-0.58,1.005,-0.37,0,100
-0.25929166666666664,0.15574992754590788,-0.515,1.03,-0.275,0,100
-0.28130555555555553,0.14073306478824144,-0.51,0.87,-0.305,0,100
-0.37733333333333335,0.16274801586092122,-0.63,0.85,-0.38,0,100
-0.33266666666666667,0.19435605927723934,-0.565,1.1,-0.375,0,100
-0.25197222222222226,0.16069899158072437,-0.47,1.01,-0.28,0,100
-0.25906944444444446,0.15449436580781198,-0.49,0.96,-0.27,0,100
-0.34762499999999996,0.17017510895643148,-0.59,0.915,-0.34,0,100
-0.30395833333333333,0.1711280739923562,-0.555,1.06,-0.325,0,100
-0.29733333333333334,0.15488741430830044,-0.535,0.97,-0.31,0,100
-0.3608611111111111,0.16532193387747332,-0.59,0.875,-0.38,0,100
-0.3999305555555556,0.1955467638293608,-0.635,0.945,-0.4125,0,100
-0.32975,0.2157450108860509,-0.57,1.14,-0.355,0,100
-0.32788888888888884,0.17633534620429236,-0.575,0.975,-0.345,0,100
-0.36620833333333336,0.1613093075688236,-0.645,0.865,-0.375,0,100
-0.375625,0.15879699107665735,-0.615,0.88,-0.395,0,100
-0.3355694444444445,0.16816169685329727,-0.575,0.985,-0.345,0,100
-0.36513888888888885,0.1575903008820618,-0.605,0.88,-0.385,0,100
-0.40147222222222223,0.15419386897148363,-0.615,0.855,-0.405,0,100
-0.34299999999999997,0.16535492130565696,-0.58,0.945,-0.37,0,100
-0.2965138888888889,0.18483325766872177,-0.545,1.03,-0.3125,0,100
-0.34244444444444444,0.1559090626053185,-0.6,0.855,-0.35,0,100
-0.3746805555555555,0.16691014102644913,-0.63,0.88,-0.385,0,100
-0.3324861111111111,0.16582830754993716,-0.565,0.995,-0.35,0,100
-0.35459722222222223,0.15463457459103583,-0.6,0.84,-0.365,0,100
-0.3732638888888889,0.1484736221480618,-0.615,0.78,-0.38,0,100
-0.3645972222222222,0.15722565698544935,-0.61,0.915,-0.385,0,100
-0.2837222222222222,0.19659682532633904,-0.55,1.07,-0.305,0,100
-0.27793055555555557,0.15025934306215083,-0.56,0.895,-0.29,0,100
-0.2854583333333333,0.1523810954937944,-0.545,0.885,-0.29,0,100
-0.29654166666666665,0.1591616000502494,-0.585,0.945,-0.305,0,100
-0.2691527777777778,0.15544038333091476,-0.525,0.96,-0.28,0,100
-0.2794166666666667,0.1618519342210995,-0.545,0.945,-0.29,0,100
-0.34181944444444445,0.15129976925781857,-0.595,0.86,-0.35,0,100
-0.32872222222222225,0.16525747774493377,-0.56,0.955,-0.36,0,100
-0.27161111111111114,0.17707237656735136,-0.515,1.03,-0.285,0,100
-0.29766666666666663,0.1414551361936199,-0.555,0.84,-0.305,0,100
-0.34625,0.15269420694097513,-0.6,0.815,-0.355,0,100
-0.38958333333333334,0.1703948641310008,-0.68,0.865,-0.39,0,100
-0.38031944444444443,0.15925423650294457,-0.635,0.88,-0.385,0,100
-0.36984722222222216,0.14135963392494713,-0.615,0.775,-0.375,0,100
-0.3612916666666667,0.14358480242042024,-0.59,0.805,-0.365,0,100
-0.3156805555555556,0.1515114431311753,-0.545,0.9,-0.345,0,100
-0.26579166666666665,0.15010782582863558,-0.52,0.945,-0.275,0,100
-0.30191666666666667,0.14355581086578603,-0.54,0.82,-0.31,0,100
-0.36704166666666665,0.15132309413782302,-0.63,0.82,-0.37,0,100
-0.35011111111111115,0.15046082505603647,-0.595,0.85,-0.375,0,100
-0.3119722222222222,0.15620676932819083,-0.595,0.89,-0.325,0,100
-0.33084722222222224,0.13833249595351194,-0.625,0.775,-0.335,0,100
-0.33726388888888886,0.1482558780037214,-0.57,0.875,-0.34,0,100
-0.29359722222222223,0.1462946664671286,-0.555,0.905,-0.305,0,100
-0.27143055555555556,0.13658369700875814,-0.525,0.85,-0.28,0,100
-0.29908333333333337,0.15167488530845616,-0.535,0.835,-0.305,0,100
-0.3146805555555555,0.15170455812284256,-0.565,0.865,-0.325,0,100
-0.3061388888888889,0.14621980272820964,-0.56,0.85,-0.32,0,100
-0.3120833333333334,0.14608395132023685,-0.57,0.84,-0.325,0,100
-0.32225000000000004,0.14715522322439736,-0.56,0.845,-0.325,0,100
-0.33068055555555553,0.1463814296802942,-0.63,0.87,-0.335,0,100
-0.3240138888888889,0.1538548642440115,-0.61,0.895,-0.335,0,100
-0.3550277777777777,0.145997523972747,-0.595,0.775,-0.37,0,100
-0.3984166666666667,0.1437686944365845,-0.64,0.7,-0.41,0,100
-0.41458333333333336,0.15460107714875584,-0.69,0.775,-0.4175,0,100
-0.371875,0.1505652255760864,-0.61,0.805,-0.39,0,100
-0.35324999999999995,0.13183583541662713,-0.585,0.78,-0.365,0,100
-0.36937500000000006,0.14356942160308525,-0.61,0.755,-0.38,0,100
-0.37677777777777777,0.17621926227022325,-0.615,0.92,-0.395,0,100
-0.3370972222222222,0.14670872121715475,-0.565,0.83,-0.35,0,100
-0.34155555555555556,0.1408725674037127,-0.585,0.77,-0.355,0,100
-0.3921111111111112,0.1524475825721706,-0.64,0.79,-0.395,0,100
-0.36519444444444443,0.14962904490855683,-0.61,0.835,-0.4,0,100
-0.295375,0.14360801562857758,-0.53,0.885,-0.315,0,100
-0.25531944444444443,0.13581378452262508,-0.5,0.835,-0.27,0,100
-0.2870833333333333,0.14392163666384566,-0.52,0.865,-0.285,0,100
-0.2714861111111111,0.14407540397070204,-0.505,0.92,-0.285,0,100
-0.26716666666666666,0.1477790204626113,-0.525,0.855,-0.275,0,100
-0.2730138888888889,0.13559134816052112,-0.53,0.79,-0.29,0,100
-0.2785,0.203774044252724,-0.525,1.02,-0.29,0,100
-0.2631388888888889,0.1830721856381274,-0.5,1.02,-0.295,0,100
-0.24879166666666666,0.14108212122928815,-0.485,0.91,-0.255,0,100
-0.25094444444444447,0.13796314814802385,-0.49,0.85,-0.26,0,100
-0.2709444444444445,0.2080042660412474,-0.53,1.095,-0.2875,0,100
-0.2821666666666667,0.14822524151514216,-0.56,0.925,-0.29,0,100
-0.2993472222222222,0.14434306738944916,-0.595,0.82,-0.305,0,100
-0.34101388888888884,0.14816849390095232,-0.59,0.785,-0.345,0,100
-0.3565138888888889,0.16975554262392498,-0.615,0.92,-0.365,0,100
-0.30633333333333335,0.14884145181291994,-0.535,0.92,-0.32,0,100
-0.316875,0.140762895353617,-0.575,0.815,-0.33,0,100
-0.3859166666666667,0.1511667355751405,-0.625,0.78,-0.39,0,100
-0.38547222222222227,0.14744085181506045,-0.61,0.845,-0.4,0,100
-0.3428333333333333,0.15313175155183634,-0.58,0.89,-0.355,0,100
-0.36758333333333326,0.1524662758703635,-0.605,0.77,-0.38,0,100
-0.4019305555555555,0.1620659439162625,-0.65,0.84,-0.4125,0,100
-0.32234722222222223,0.16304772305151627,-0.58,0.965,-0.3525,0,100
-0.2898472222222222,0.15468261948280332,-0.55,0.92,-0.3,0,100
-0.3395138888888889,0.15344008901916695,-0.585,0.83,-0.35,0,100
-0.34620833333333334,0.14803949712267106,-0.57,0.87,-0.365,0,100
-0.30486111111111114,0.1464116443414438,-0.55,0.91,-0.315,0,100
-0.3014861111111111,0.166419232416839,-0.57,0.9,-0.3225,0,100
-0.36340277777777774,0.15449835127870945,-0.63,0.83,-0.365,0,100
-0.2889861111111111,0.15354428361004194,-0.54,0.92,-0.33,0,100
-0.20494444444444446,0.14970525568678913,-0.45,1.025,-0.22,0,100
-0.2308888888888889,0.14632930476189235,-0.525,0.935,-0.245,0,100
-0.2880972222222222,0.17737453779770823,-0.535,1.035,-0.295,0,100
-0.27993055555555557,0.15012192511319378,-0.575,0.945,-0.295,0,100
-0.2674861111111111,0.14303748470006378,-0.56,0.87,-0.275,0,100
-0.2808611111111111,0.19386659972170123,-0.545,1.015,-0.295,0,100
-0.3156527777777778,0.15445622894189348,-0.58,0.9,-0.33,0,100
-0.26565277777777774,0.19338089642825387,-0.5,1.09,-0.29,0,100
-0.29312499999999997,0.17206595453003867,-0.57,0.935,-0.315,0,100
-0.378375,0.14767197483875463,-0.63,0.76,-0.385,0,100
-0.4060416666666667,0.15134704760729376,-0.67,0.8,-0.41,0,100
-0.34750000000000003,0.14894117033991044,-0.595,0.855,-0.365,0,100
-0.31575000000000003,0.16033902883161874,-0.6,0.855,-0.33,0,100
-0.34033333333333327,0.1526252673125332,-0.59,0.83,-0.345,0,100
-0.3233611111111111,0.1529563577512985,-0.565,0.885,-0.35,0,100
-0.2579444444444444,0.14991135240617007,-0.495,0.94,-0.27,0,100
-0.28506944444444443,0.14419145513179582,-0.55,0.885,-0.305,0,100
-0.36527777777777776,0.14933484208893916,-0.63,0.81,-0.3625,0,100
-0.3276805555555556,0.14443845540468564,-0.57,0.86,-0.355,0,100
-0.2836388888888889,0.1444028225289277,-0.525,0.865,-0.2925,0,100
-0.2975555555555556,0.1461325396200397,-0.53,0.82,-0.31,0,100
-0.3404583333333333,0.15053284409981027,-0.59,0.825,-0.35,0,100
-0.2818333333333333,0.1553203678422977,-0.545,0.92,-0.3,0,100
-0.2824027777777778,0.13926789329703765,-0.52,0.82,-0.295,0,100
-0.33144444444444443,0.13870080598268675,-0.565,0.74,-0.345,0,100
-0.3591666666666667,0.1446950816948063,-0.615,0.82,-0.365,0,100
-0.2951666666666667,0.14632953677686994,-0.565,0.89,-0.31,0,100
-0.27873611111111113,0.1521411984031387,-0.545,0.9,-0.29,0,100
-0.27958333333333335,0.14377391105482246,-0.53,0.865,-0.2925,0,100
-0.24030555555555558,0.14643178530262335,-0.49,0.94,-0.255,0,100
-0.21375,0.14765751946838182,-0.45,0.945,-0.225,0,100
-0.2736527777777778,0.1472613096696389,-0.505,0.84,-0.29,0,100
-0.32836111111111116,0.14481677173774868,-0.565,0.825,-0.32,0,100
-0.2912638888888889,0.1439343014726931,-0.555,0.865,-0.305,0,100
-0.26611111111111113,0.14514126792308585,-0.515,0.885,-0.28,0,100
-0.3165138888888889,0.14695379026675506,-0.58,0.82,-0.32,0,100
-0.33045833333333335,0.15240251323933823,-0.58,0.835,-0.335,0,100
-0.2945138888888889,0.14434997912630756,-0.57,0.865,-0.305,0,100
-0.30038888888888887,0.146626846446227,-0.545,0.855,-0.315,0,100
-0.38281944444444443,0.1530905075790216,-0.66,0.75,-0.3975,0,100
-0.4055833333333333,0.15454617702594048,-0.66,0.78,-0.415,0,100
-0.3170138888888889,0.18257353868871848,-0.565,0.975,-0.355,0,100
-0.28573611111111114,0.14819731526428948,-0.535,0.865,-0.3,0,100
-0.3236666666666667,0.150166204216824,-0.57,0.8,-0.325,0,100
-0.33558333333333334,0.14981588237270144,-0.58,0.82,-0.345,0,100
-0.2640138888888889,0.1494845303270501,-0.505,0.935,-0.285,0,100
-0.2595972222222222,0.14198167523802172,-0.54,0.84,-0.2675,0,100
-0.291,0.13961594146483097,-0.555,0.815,-0.295,0,100
-0.2858611111111111,0.17872840239029628,-0.54,1.01,-0.295,0,100
-0.26129166666666664,0.15025140390359085,-0.515,0.915,-0.265,0,100
-0.2592777777777778,0.16165946910285608,-0.51,0.925,-0.28,0,100
-0.3212222222222222,0.151467013480954,-0.58,0.84,-0.32,0,100
-0.28529166666666667,0.17151283054531713,-0.53,1.055,-0.315,0,100
-0.22819444444444442,0.22525249036044032,-0.435,1.31,-0.25,0,100
-0.2590277777777778,0.185103647558621,-0.545,1.06,-0.28,0,100
-0.29715277777777777,0.15109375857782092,-0.55,0.865,-0.295,0,100
-0.27520833333333333,0.1980418682936066,-0.485,1.115,-0.3,0,100
-0.23291666666666666,0.15676670121907624,-0.45,1.02,-0.235,0,100
-0.23730555555555558,0.15299951333336623,-0.465,0.96,-0.2475,0,100
-0.277125,0.18117440473354826,-0.495,1.06,-0.28,0,100
-0.2708055555555556,0.1819837934549308,-0.495,1.12,-0.275,0,100
-0.2559444444444444,0.15436184841765008,-0.475,0.98,-0.275,0,100
-0.2974861111111111,0.1576163585220945,-0.54,0.88,-0.31,0,100
-0.3175138888888889,0.16882806779017948,-0.535,1.015,-0.33,0,100
-0.27466666666666667,0.17122808051121624,-0.52,1.08,-0.2825,0,100
-0.2785277777777778,0.14785756774513156,-0.505,0.915,-0.3,0,100
-0.35450000000000004,0.16552911794874303,-0.6,0.875,-0.35,0,100
-0.314,0.175658601965416,-0.555,1.0,-0.345,0,100
-0.2361111111111111,0.15750754440092665,-0.475,0.995,-0.25,0,100
-0.2845416666666667,0.16258330663761955,-0.615,0.88,-0.3025,0,100
-0.323625,0.17923482715111172,-0.555,1.03,-0.335,0,100
-0.2871944444444444,0.17205753550685118,-0.51,1.1,-0.295,0,100
-0.2756527777777778,0.16838012218738735,-0.515,1.1,-0.285,0,100
-0.2624166666666667,0.18076417648416956,-0.51,1.1,-0.285,0,100
-0.3013194444444444,0.16569674663111467,-0.555,0.975,-0.3,0,100
-0.26080555555555557,0.19067363324167358,-0.505,1.18,-0.28,0,100
-0.254,0.17273687440085794,-0.55,1.11,-0.265,0,100
-0.2662361111111111,0.15641757618769095,-0.545,0.97,-0.27,0,100
-0.3084861111111111,0.1582991185010513,-0.545,0.905,-0.3025,0,100
-0.2528055555555555,0.16106689766892315,-0.48,1.07,-0.275,0,100
-0.233375,0.17021085269453295,-0.51,1.1,-0.25,0,100
-0.267,0.1554952660944306,-0.55,0.945,-0.285,0,100
-0.3164444444444445,0.15151181553566567,-0.59,0.875,-0.31,0,100
-0.2929861111111111,0.16213775804813804,-0.565,0.975,-0.3,0,100
-0.301,0.16940041322263652,-0.575,0.985,-0.31,0,100
-0.3502083333333333,0.15464977794825457,-0.61,0.85,-0.36,0,100
-0.36879166666666663,0.155602318739864,-0.6,0.835,-0.375,0,100
-0.3005694444444445,0.20796072187828113,-0.565,1.14,-0.325,0,100
-0.3213055555555555,0.15834856408225992,-0.575,0.92,-0.33,0,100
-0.3638055555555556,0.14946744711445895,-0.6,0.77,-0.375,0,100
-0.4030694444444445,0.1531677843982511,-0.66,0.78,-0.405,0,100
-0.35900000000000004,0.1629740095161734,-0.605,0.895,-0.365,0,100
-0.36483333333333334,0.1838348443576462,-0.625,0.955,-0.375,0,100
-0.3936388888888888,0.15540478556512732,-0.625,0.78,-0.4,0,100
-0.39775,0.14910778633070926,-0.65,0.815,-0.405,0,100
-0.33855555555555555,0.15501835813226988,-0.6,0.935,-0.35,0,100
-0.3298055555555556,0.17444544187612934,-0.58,0.95,-0.345,0,100
-0.3585555555555555,0.14574043602020004,-0.61,0.82,-0.3725,0,100
-0.38155555555555554,0.15846072847597223,-0.615,0.82,-0.385,0,100
-0.33925,0.16672788459043075,-0.59,0.915,-0.35,0,100
-0.33411111111111114,0.16214718584219467,-0.6,0.915,-0.345,0,100
-0.3094861111111111,0.15507910105773937,-0.58,0.935,-0.325,0,100
-0.3296527777777778,0.16105754317791568,-0.56,0.895,-0.325,0,100
-0.2974583333333334,0.15687131469774837,-0.53,0.99,-0.305,0,100
-0.2894583333333333,0.15795278280936434,-0.55,1.0,-0.3,0,100
-0.2778194444444445,0.1560592236574956,-0.535,0.97,-0.29,0,100
-0.2965694444444445,0.15430838768778082,-0.54,0.88,-0.305,0,100
-0.29165277777777776,0.17143748129357228,-0.545,0.98,-0.3,0,100
-0.3046666666666667,0.17484882359086978,-0.585,1.055,-0.315,0,100
-0.31501388888888887,0.16055178232302114,-0.58,0.945,-0.33,0,100
-0.3450694444444445,0.18086039170747212,-0.58,0.955,-0.3575,0,100
-0.3504583333333333,0.153522522551434,-0.575,0.895,-0.37,0,100
-0.34945833333333337,0.16997728095738757,-0.57,1.02,-0.365,0,100
-0.37693055555555555,0.15754702352603675,-0.635,0.875,-0.385,0,100
-0.3804166666666666,0.16865388209123572,-0.645,0.87,-0.385,0,100
-0.33358333333333334,0.19139239433977281,-0.565,1.01,-0.37,0,100
-0.2865833333333333,0.1509975855215352,-0.51,0.955,-0.3,0,100
-0.2987222222222222,0.13974294080980562,-0.515,0.84,-0.315,0,100
-0.3459583333333333,0.17153469340534777,-0.585,1.0,-0.35,0,100
-0.30451388888888886,0.16707732682932205,-0.52,1.005,-0.32,0,100
-0.27063888888888893,0.1583978206881819,-0.51,0.955,-0.29,0,100
-0.3194027777777778,0.15135312459813074,-0.535,0.855,-0.34,0,100
-0.3849583333333333,0.19636646844753194,-0.63,1.015,-0.395,0,100
-0.360875,0.17006289175707254,-0.6,0.97,-0.38,0,100
-0.3287361111111111,0.15909815218700998,-0.545,0.915,-0.345,0,100
-0.3174861111111111,0.15101140437577293,-0.53,0.9,-0.335,0,100
-0.35715277777777776,0.16673545744700416,-0.59,0.94,-0.355,0,100
-0.3343888888888889,0.17402917663710202,-0.595,1.07,-0.35,0,100
-0.304875,0.1541109753013501,-0.545,0.955,-0.32,0,100
-0.32001388888888893,0.17148513808746382,-0.575,0.965,-0.34,0,100
-0.3503888888888889,0.1679847509246297,-0.575,0.965,-0.365,0,100
-0.2602777777777778,0.1697029448954049,-0.5,1.095,-0.295,0,100
-0.22970833333333332,0.16827387047937986,-0.49,1.07,-0.245,0,100
-0.28008333333333335,0.17395599299822928,-0.525,1.0,-0.3,0,100
-0.3305416666666666,0.17148590300825184,-0.57,0.99,-0.335,0,100
-0.287875,0.16383722761563618,-0.525,1.05,-0.305,0,100
-0.2811388888888889,0.1483219382847433,-0.52,0.945,-0.3,0,100
-0.3372083333333334,0.17088998552512602,-0.585,0.825,-0.365,0,100
-0.3938888888888889,0.16800839558681083,-0.655,0.875,-0.41,0,100
-0.31799999999999995,0.1662541561719419,-0.58,1.02,-0.35,0,100
-0.26894444444444443,0.14964122731914573,-0.53,0.94,-0.2875,0,100
-0.30145833333333333,0.15667694447670197,-0.535,0.87,-0.325,0,100
-0.36113888888888884,0.15712594961752777,-0.625,0.91,-0.365,0,100
-0.29633333333333334,0.18738967124387854,-0.535,1.08,-0.3175,0,100
-0.30713888888888885,0.1470067369540476,-0.59,0.855,-0.315,0,100
-0.32069444444444445,0.14466461585421267,-0.585,0.81,-0.325,0,100
-0.31704166666666667,0.16910651126665044,-0.58,0.945,-0.33,0,100
-0.2615,0.1593396965256583,-0.535,0.995,-0.28,0,100
-0.2492777777777778,0.14996029309844933,-0.495,0.92,-0.26,0,100
-0.2756805555555556,0.1405229149353001,-0.53,0.855,-0.28,0,100
-0.28520833333333334,0.15237435055918477,-0.525,0.95,-0.295,0,100
-0.24086111111111114,0.15074475350696803,-0.55,0.975,-0.25,0,100
-0.2584583333333333,0.14416829840117032,-0.525,0.875,-0.27,0,100
-0.30413888888888885,0.1527228158712847,-0.56,0.865,-0.31,0,100
-0.30966666666666665,0.1604365572084146,-0.565,0.945,-0.33,0,100
-0.26245833333333335,0.1517023710262961,-0.525,0.94,-0.275,0,100
-0.2701388888888889,0.1464837216549216,-0.57,0.88,-0.28,0,100
-0.3064861111111111,0.15205335257507804,-0.565,0.865,-0.3075,0,100
-0.2770694444444445,0.14711279935146598,-0.545,0.92,-0.295,0,100
-0.23733333333333334,0.1706799311251586,-0.505,1.02,-0.255,0,100
-0.26225000000000004,0.14713540154867177,-0.5,0.89,-0.265,0,100
-0.22734722222222223,0.18227986416818737,-0.47,1.055,-0.25,0,100
-0.2455,0.14419132737057694,-0.5,0.85,-0.255,0,100
-0.302125,0.14806482603350918,-0.595,0.8,-0.305,0,100
-0.28844444444444445,0.14913713756965144,-0.525,0.915,-0.315,0,100
-0.24020833333333333,0.13938963550462105,-0.505,0.895,-0.25,0,100
-0.28961111111111115,0.15072275463722157,-0.555,0.84,-0.31,0,100
-0.35680555555555554,0.1597009043744734,-0.595,0.855,-0.355,0,100
-0.2805138888888889,0.18982433348987834,-0.535,1.04,-0.315,0,100
-0.28456944444444443,0.16003565803950004,-0.57,0.925,-0.29,0,100
-0.3124583333333333,0.14512876825426446,-0.575,0.83,-0.32,0,100
-0.3394027777777778,0.1564750299322034,-0.63,0.87,-0.34,0,100
-0.306125,0.1511513165212633,-0.57,0.93,-0.315,0,100
-0.2893055555555556,0.15396587274177287,-0.555,0.96,-0.3,0,100
-0.2657638888888889,0.14872481047741568,-0.545,0.91,-0.275,0,100
-0.2645138888888889,0.14961608212127794,-0.52,0.925,-0.27,0,100
-0.25454166666666667,0.1600190906579587,-0.535,0.99,-0.26,0,100
-0.2665,0.15361559165657634,-0.535,0.96,-0.275,0,100
-0.28906944444444443,0.15170982228408658,-0.58,0.9,-0.29,0,100
-0.27881944444444445,0.1549692914373046,-0.605,0.945,-0.285,0,100
-0.27231944444444445,0.16552432066927414,-0.55,1.05,-0.285,0,100
-0.27729166666666666,0.16035147484856854,-0.525,1.015,-0.29,0,100
-0.30397222222222225,0.1507879279929102,-0.615,0.905,-0.305,0,100
-0.27523611111111107,0.15833074498371683,-0.52,0.97,-0.3,0,100
-0.23331944444444447,0.17031309618765286,-0.48,1.1,-0.2475,0,100
-0.2659861111111111,0.18647180998266166,-0.585,1.075,-0.28,0,100
-0.34354166666666663,0.16125212638563524,-0.63,0.895,-0.35,0,100
-0.34223611111111113,0.18603483044965555,-0.57,1.035,-0.37,0,100
-0.31875,0.17925569493510288,-0.565,1.08,-0.325,0,100
-0.3115277777777778,0.18417842890208264,-0.555,1.11,-0.33,0,100
-0.3215138888888889,0.16317594398681337,-0.56,0.96,-0.335,0,100
-0.3540277777777777,0.1606389993659197,-0.605,0.905,-0.36,0,100
-0.2929305555555556,0.1962802224703872,-0.54,1.19,-0.31,0,100
-0.29373611111111114,0.18690460973564055,-0.54,1.135,-0.31,0,100
-0.3035555555555556,0.17236910403170097,-0.575,1.005,-0.32,0,100
-0.3466111111111111,0.16114146265829388,-0.55,0.905,-0.3925,1,100
-0.291125,0.1907472103698738,-0.48,1.105,-0.33,0,100
-0.2523472222222222,0.2023438464952818,-0.5,1.23,-0.27,0,100
-0.28044444444444444,0.16296155723299427,-0.515,0.975,-0.3,0,100
-0.3300277777777778,0.16458111578440435,-0.56,0.925,-0.335,0,100
-0.3200972222222222,0.17649655014902182,-0.555,1.06,-0.35,0,100
-0.2670555555555555,0.17788322393644854,-0.5,1.185,-0.2825,0,100
-0.2603611111111111,0.16068000511329925,-0.51,1.07,-0.27,0,100
-0.2727361111111111,0.15670416156421377,-0.505,0.995,-0.285,0,100
-0.2778611111111111,0.18911234943777877,-0.515,1.085,-0.295,0,100
-0.24880555555555553,0.18658098025082304,-0.485,1.235,-0.265,0,100
-0.2503472222222222,0.17540494099544995,-0.545,1.145,-0.26,0,100
-0.24947222222222223,0.16694601358108938,-0.49,1.065,-0.265,0,100
-0.30604166666666666,0.16756992218009903,-0.54,0.995,-0.305,0,100
-0.28256944444444443,0.17887300168841774,-0.5,1.135,-0.3,0,100
-0.25843055555555555,0.1812708858762433,-0.505,1.21,-0.28,0,100
-0.26240277777777776,0.16698550001274412,-0.5,1.085,-0.285,0,100
-0.2999861111111111,0.1803120361003511,-0.56,0.98,-0.315,0,100
-0.3153472222222222,0.1735966077275307,-0.58,1.025,-0.3475,0,100
-0.279875,0.18364193250725716,-0.505,1.16,-0.29,0,100
-0.2696527777777778,0.18049108624667914,-0.495,1.15,-0.295,0,100
-0.24830555555555556,0.16692410441815309,-0.48,1.11,-0.27,0,100
-0.2697083333333333,0.1632244056421166,-0.52,1.0,-0.27,0,100
-0.23550000000000001,0.17644294009994027,-0.455,1.17,-0.25,0,100
-0.212,0.1770197729068705,-0.485,1.185,-0.225,0,100
-0.19036111111111112,0.1882625461036584,-0.435,1.21,-0.215,0,100
-0.25094444444444447,0.167450895695233,-0.495,1.015,-0.2625,0,100
-0.26659722222222226,0.22898178358661236,-0.515,1.215,-0.3,0,100
-0.2475972222222222,0.21127323407551749,-0.495,1.23,-0.275,0,100
-0.23979166666666668,0.16625707482857852,-0.475,1.12,-0.26,0,100
-0.24320833333333336,0.15085653021441708,-0.455,0.97,-0.255,0,100
-0.23620833333333333,0.15826182047305168,-0.45,1.005,-0.26,0,100
-0.16568055555555555,0.20051571193556053,-0.41,1.27,-0.19,0,100
-0.19034722222222225,0.17458945174022003,-0.425,1.165,-0.205,0,100
-0.25119444444444444,0.16491105674211923,-0.48,1.04,-0.265,0,100
-0.3040138888888889,0.16752549499633013,-0.54,0.985,-0.3075,0,100
-0.25344444444444447,0.18208269556630405,-0.5,1.145,-0.27,0,100
-0.22626388888888893,0.15789368725115463,-0.415,1.04,-0.245,0,100
-0.2538888888888889,0.15315982534191344,-0.48,0.995,-0.26,0,100
-0.2924722222222222,0.16321679279601495,-0.53,1.01,-0.295,0,100
-0.26679166666666665,0.2235457284502062,-0.5,1.2,-0.29,0,100
-0.27066666666666667,0.20619799007534265,-0.545,1.16,-0.3,0,100
-0.29568055555555556,0.17475743716401831,-0.525,0.995,-0.305,0,100
-0.29783333333333334,0.16555260996633872,-0.525,0.995,-0.315,0,100
-0.2801666666666667,0.1775386499391674,-0.51,1.105,-0.29,0,100
-0.294125,0.16182251401355335,-0.54,1.02,-0.305,0,100
-0.31251388888888887,0.1526852238590118,-0.545,0.9,-0.32,0,100
-0.3418333333333333,0.16036451533234455,-0.58,0.915,-0.34,0,100
-0.3029861111111111,0.17330099803004564,-0.52,1.075,-0.315,0,100
-0.28925,0.1719936004946437,-0.52,1.05,-0.31,0,100
-0.2854583333333333,0.15853714404412195,-0.525,0.92,-0.295,0,100
-0.2840138888888889,0.16229409972977688,-0.525,0.97,-0.3,0,100
-0.23394444444444445,0.16893538285464926,-0.445,1.12,-0.245,0,100
-0.24019444444444443,0.19513162501308423,-0.47,1.18,-0.255,0,100
-0.2663333333333333,0.1747852650794365,-0.52,1.05,-0.285,0,100
-0.3034861111111111,0.16014142994514738,-0.515,0.93,-0.31,0,100
-0.24258333333333337,0.1657545667210677,-0.485,1.055,-0.27,0,100
-0.2083472222222222,0.1728208899186784,-0.455,1.125,-0.22,0,100
-0.24141666666666667,0.1618382036685611,-0.515,1.035,-0.255,0,100
-0.28529166666666667,0.15719409777405766,-0.545,0.925,-0.295,0,100
-0.29102777777777783,0.15553643483675583,-0.52,0.98,-0.315,0,100
-0.25904166666666667,0.17211990632340518,-0.495,1.13,-0.2675,0,100
-0.2744583333333333,0.19260581056626744,-0.525,1.105,-0.295,0,100
-0.303625,0.1530363462184356,-0.55,0.895,-0.31,0,100
-0.27830555555555553,0.1652869255171551,-0.515,1.035,-0.305,0,100
-0.21079166666666665,0.1827167614931798,-0.445,1.225,-0.225,0,100
-0.25755555555555554,0.17342104262370053,-0.495,1.115,-0.27,0,100
-0.3081527777777778,0.17632629630903535,-0.56,1.0,-0.3225,0,100
-0.3441944444444444,0.1607695589352876,-0.58,0.925,-0.35,0,100
-0.30698611111111107,0.18373709274815253,-0.525,1.14,-0.315,0,100
-0.2963472222222222,0.18149243630721473,-0.54,1.11,-0.31,0,100
-0.28863888888888894,0.16786265099409525,-0.545,1.01,-0.3,0,100
-0.3404583333333333,0.16761728377301802,-0.61,0.91,-0.345,0,100
-0.3497638888888889,0.1720606718779709,-0.59,1.0,-0.375,0,100
-0.32272222222222224,0.17869886387612344,-0.565,1.11,-0.33,0,100
-0.31451388888888887,0.1667540598419284,-0.565,1.04,-0.33,0,100
-0.33255555555555555,0.16122662525574993,-0.575,0.885,-0.345,0,100
-0.37525000000000003,0.16741728886561,-0.6,0.91,-0.38,0,100
-0.30933333333333335,0.22938559239847653,-0.56,1.255,-0.3375,0,100
-0.3225,0.17550087052648927,-0.575,1.04,-0.335,0,100
-0.31297222222222226,0.1615787537792005,-0.59,0.965,-0.325,0,100
-0.3489861111111111,0.1766989351863436,-0.6,0.94,-0.3475,0,100
-0.3120833333333333,0.1700080676190267,-0.56,1.05,-0.325,0,100
-0.3205555555555556,0.19989711860027237,-0.565,1.175,-0.335,0,100
-0.3425694444444444,0.18540045445144535,-0.6,1.055,-0.365,0,100
-0.38987499999999997,0.16455807295602365,-0.685,0.835,-0.39,0,100
-0.36662500000000003,0.17373770440107572,-0.645,0.935,-0.39,0,100
-0.3313611111111111,0.1791913398170573,-0.585,1.05,-0.345,0,100
-0.3202916666666667,0.16286705873025534,-0.575,0.975,-0.33,0,100
-0.32355555555555554,0.17915037824322716,-0.57,0.995,-0.34,0,100
-0.39370833333333327,0.16709880954925374,-0.635,0.84,-0.395,0,100
-0.4120277777777777,0.1818819040096426,-0.685,0.99,-0.44,1,100
-0.33891666666666664,0.17297340434619163,-0.58,1.025,-0.365,0,100
-0.2775,0.15394082557196376,-0.53,0.955,-0.3,0,100
-0.2785138888888889,0.15986912990314187,-0.525,0.935,-0.285,0,100
-0.22583333333333336,0.2179035209546749,-0.45,1.195,-0.255,0,100
-0.23941666666666667,0.16466529604692737,-0.48,1.09,-0.25,0,100
-0.26661111111111113,0.16137573096103972,-0.5,1.01,-0.27,0,100
-0.30519444444444443,0.15395558873411883,-0.525,0.975,-0.335,1,100
-0.34823611111111114,0.15796892214183877,-0.605,0.91,-0.34,0,100
-0.3132638888888889,0.16695965855522268,-0.55,1.04,-0.325,0,100
-0.31719444444444445,0.16728606892991624,-0.525,0.985,-0.33,0,100
-0.32826388888888886,0.15429535107272133,-0.54,0.905,-0.345,0,100
-0.3668472222222222,0.16839847417181386,-0.6,0.87,-0.375,0,100
-0.3304166666666667,0.18371012416908936,-0.555,0.99,-0.37,0,100
-0.3149861111111111,0.16523321002748706,-0.535,1.04,-0.33,0,100
-0.3323888888888889,0.15728243840969267,-0.585,0.93,-0.35,0,100
-0.35641666666666666,0.14957836574852662,-0.58,0.85,-0.365,0,100
-0.338125,0.1831268486823637,-0.575,0.94,-0.3675,0,100
-0.31233333333333335,0.1742594649111236,-0.565,1.04,-0.3275,0,100
-0.31127777777777776,0.1753948895605303,-0.545,1.005,-0.33,0,100
-0.3252083333333333,0.18642960672567244,-0.565,0.99,-0.34,0,100
-0.32766666666666666,0.1682754851096525,-0.58,0.97,-0.36,0,100
-0.24801388888888892,0.16716969863115774,-0.475,1.12,-0.265,0,100
-0.2498888888888889,0.16449751395922504,-0.495,1.095,-0.265,0,100
-0.26109722222222226,0.15643814536620307,-0.505,0.98,-0.27,0,100
-0.3215138888888889,0.1902476451201576,-0.56,1.0,-0.355,1,100
-0.2684722222222222,0.18438719618586305,-0.515,1.07,-0.31,0,100
-0.2256111111111111,0.17056984196408906,-0.44,1.085,-0.24,0,100
-0.24887499999999999,0.1738902860921858,-0.46,1.07,-0.265,0,100
-0.31977777777777777,0.14943255838729672,-0.59,0.85,-0.32,0,100
-0.2960138888888889,0.16803360221623959,-0.52,1.005,-0.32,0,100
-0.24104166666666668,0.16511514816266187,-0.49,1.08,-0.2625,0,100
-0.24040277777777777,0.15578177932627976,-0.475,1.03,-0.255,0,100
-0.3148055555555556,0.15538872750557703,-0.55,0.895,-0.325,0,100
-0.3165694444444444,0.15915347470540023,-0.54,0.945,-0.34,0,100
-0.27793055555555557,0.176468704054862,-0.5,1.095,-0.285,0,100
-0.27495833333333336,0.1627444688853596,-0.5,1.045,-0.29,0,100
-0.2880833333333333,0.15320490545526133,-0.53,0.925,-0.2975,0,100
-0.3000416666666667,0.16209885851095793,-0.525,1.0,-0.31,0,100
-0.2568194444444445,0.21181184826717797,-0.52,1.225,-0.28,0,100
-0.25879166666666664,0.1652401398554372,-0.49,1.06,-0.275,0,100
-0.27594444444444444,0.16619039356587448,-0.52,0.995,-0.285,0,100
-0.36001388888888886,0.1571864156075302,-0.625,0.865,-0.385,1,100
-0.32240277777777776,0.1719677505071988,-0.535,1.035,-0.355,0,100
-0.2811527777777778,0.16922738316982322,-0.535,1.08,-0.3,0,100
-0.29170833333333335,0.16078258590579877,-0.525,1.005,-0.31,0,100
-0.3260416666666667,0.15677376104685944,-0.56,0.855,-0.3375,0,100
-0.3540972222222223,0.17310025673341112,-0.565,0.985,-0.4,1,100
-0.31233333333333335,0.18279724651463797,-0.545,1.075,-0.32,0,100
-0.31227777777777777,0.1726897685818112,-0.59,1.01,-0.325,0,100
-0.3671666666666667,0.15940784519938506,-0.6,0.865,-0.3675,0,100
-0.3483888888888889,0.16776525891484634,-0.585,0.98,-0.385,0,100
-0.27134722222222224,0.1721378775318577,-0.495,1.175,-0.285,0,100
-0.26925000000000004,0.17308313272336312,-0.515,1.11,-0.285,0,100
-0.28018055555555554,0.15574652897763164,-0.525,0.975,-0.2925,0,100
-0.32119444444444445,0.1631460353732958,-0.565,0.925,-0.32,0,100
-0.29956944444444444,0.18077501566472134,-0.54,1.145,-0.305,0,100
-0.29533333333333334,0.17582748805450057,-0.57,1.095,-0.31,0,100
-0.3021111111111111,0.1582617869540103,-0.57,1.025,-0.315,0,100
-0.35020833333333334,0.15413566692834088,-0.59,0.9,-0.35,0,100
-0.311125,0.19065180139458426,-0.575,1.07,-0.34,0,100
-0.28552777777777777,0.1717261201434021,-0.545,1.105,-0.295,0,100
-0.2780416666666667,0.17382218224860332,-0.55,1.08,-0.295,0,100
-0.30713888888888885,0.15454371060529873,-0.61,0.93,-0.31,0,100
-0.30073611111111115,0.20619084963636342,-0.525,1.11,-0.32,0,100
-0.271,0.179390093248082,-0.54,1.135,-0.285,0,100
-0.2517638888888889,0.17228533285863276,-0.495,1.125,-0.265,0,100
-0.28352777777777777,0.16035351330231296,-0.55,0.995,-0.295,0,100
-0.3413611111111111,0.18335517336242638,-0.585,1.0,-0.3525,0,100
-0.3441388888888889,0.16974231332257364,-0.575,1.0,-0.37,0,100
-0.3049722222222222,0.1965271378081453,-0.56,1.16,-0.315,0,100
-0.3029305555555556,0.23596482355479792,-0.55,1.22,-0.33,0,100
-0.3594722222222222,0.15443984555503068,-0.6,0.865,-0.36,0,100
-0.33925,0.15899377608363585,-0.57,0.945,-0.365,0,100
-0.24370833333333333,0.17295772102999302,-0.49,1.165,-0.27,0,100
-0.2328333333333333,0.1748071159243175,-0.51,1.125,-0.245,0,100
-0.2865,0.1978287699557934,-0.54,1.07,-0.315,0,100
-0.3546944444444444,0.15986901225768213,-0.595,0.885,-0.355,0,100
-0.3035555555555556,0.17403901932300578,-0.545,1.035,-0.33,0,100
-0.2768333333333333,0.1756083869168997,-0.53,1.09,-0.285,0,100
-0.2708333333333333,0.191106064209846,-0.555,1.12,-0.295,0,100
-0.3105833333333333,0.14763249698716968,-0.535,0.885,-0.315,0,100
-0.2961944444444444,0.1517841704973883,-0.54,0.945,-0.31,0,100
-0.251375,0.1675302159727877,-0.485,1.12,-0.265,0,100
-0.25830555555555557,0.16138864744674997,-0.505,1.025,-0.27,0,100
-0.2997222222222222,0.15616784259804706,-0.575,0.905,-0.305,0,100
-0.3119166666666667,0.16144123027694424,-0.565,0.955,-0.325,0,100
-0.26866666666666666,0.1732224003990246,-0.53,1.11,-0.28,0,100
-0.28720833333333334,0.1578049901953533,-0.535,0.965,-0.295,0,100
-0.2804027777777778,0.17809576541555,-0.535,1.03,-0.305,0,100
-0.33243055555555556,0.15481169802096933,-0.6,0.87,-0.335,0,100
-0.3065277777777778,0.17096750602756056,-0.535,1.015,-0.33,0,100
-0.2853888888888889,0.16878236772341176,-0.535,1.055,-0.29,0,100
-0.29747222222222225,0.1575096974282873,-0.555,0.96,-0.305,0,100
-0.3405416666666667,0.15402713843670537,-0.565,0.855,-0.345,0,100
-0.3214722222222222,0.16561266492617832,-0.545,0.995,-0.365,0,100
-0.240625,0.18689743455078955,-0.46,1.215,-0.255,0,100
-0.2645555555555556,0.15774565400677348,-0.515,1.005,-0.275,0,100
-0.3040833333333333,0.15068268259270318,-0.565,0.89,-0.3075,0,100
-0.30551388888888886,0.15760164207544458,-0.545,0.965,-0.335,0,100
-0.2559166666666667,0.1700089662668152,-0.51,1.1,-0.265,0,100
-0.24883333333333332,0.1605066630669546,-0.51,1.045,-0.265,0,100
-0.25751388888888893,0.15060249306771079,-0.495,0.96,-0.27,0,100
-0.3161388888888889,0.1498437432011868,-0.575,0.9,-0.31,0,100
-0.2639444444444445,0.16455114781402644,-0.495,1.095,-0.285,0,100
-0.25558333333333333,0.1617527906336635,-0.51,1.05,-0.265,0,100
-0.2949444444444444,0.17007677097326185,-0.525,0.97,-0.31,0,100
-0.3408611111111111,0.1599716385935988,-0.58,0.89,-0.34,0,100
-0.28720833333333334,0.21496136199972726,-0.53,1.215,-0.315,0,100
-0.3344722222222222,0.1604559451672208,-0.58,0.945,-0.345,0,100
-0.3542222222222222,0.17392153580647782,-0.6,0.9,-0.37,0,100
-0.41734722222222226,0.17380977466777217,-0.655,0.865,-0.415,0,100
-0.38643055555555555,0.16419025434511508,-0.62,0.96,-0.41,0,100
-0.33963888888888893,0.20626407733477353,-0.6,1.105,-0.36,0,100
-0.36420833333333336,0.1539782576191991,-0.605,0.865,-0.37,0,100
-0.39875000000000005,0.15955265153268722,-0.615,0.82,-0.4,0,100
-0.33891666666666664,0.22379105768551166,-0.57,1.14,-0.3675,0,100
-0.3547361111111111,0.16598192614588722,-0.6,0.97,-0.37,0,100
-0.35997222222222225,0.191967153745853,-0.61,1.055,-0.385,0,100
-0.4156111111111111,0.2034331418669941,-0.66,0.94,-0.435,0,100
-0.40111111111111114,0.17097965729839484,-0.625,0.92,-0.445,0,100
-0.3207222222222222,0.1726429538271772,-0.565,1.08,-0.34,0,100
-0.2918888888888889,0.16748976382947803,-0.525,1.02,-0.31,0,100
-0.33352777777777776,0.15985905008807516,-0.655,0.825,-0.335,0,100
-0.37338888888888894,0.16098193096979993,-0.615,0.88,-0.38,0,100
-0.3018194444444445,0.1775964781924406,-0.535,1.12,-0.325,0,100
-0.3078888888888889,0.1649957537800052,-0.575,1.015,-0.325,0,100
-0.3363611111111111,0.15505181083499114,-0.605,0.93,-0.35,0,100
-0.3761666666666667,0.18603359911585865,-0.66,0.885,-0.395,0,100
-0.38441666666666663,0.17264709911647325,-0.645,0.915,-0.42,0,100
-0.3401666666666667,0.1752723277898964,-0.605,1.05,-0.355,0,100
-0.3333055555555556,0.16515957257628225,-0.58,0.975,-0.355,0,100
-0.32788888888888884,0.1924306913869363,-0.585,1.04,-0.35,0,100
-0.33894444444444444,0.15474530049307267,-0.575,0.885,-0.3675,0,100
-0.21522222222222223,0.19364975702298656,-0.435,1.25,-0.25,0,100
-0.22304166666666667,0.16318057801609437,-0.47,1.075,-0.235,0,100
-0.28487500000000004,0.1630560518400549,-0.56,0.975,-0.3025,0,100
-0.3714166666666667,0.1613917550902496,-0.62,0.845,-0.38,0,100
-0.3603888888888889,0.19123934651195865,-0.585,1.01,-0.395,0,100
-0.32918055555555553,0.17931569975177616,-0.58,1.09,-0.345,0,100
-0.3228611111111111,0.16141219711206217,-0.58,0.97,-0.34,0,100
-0.3764861111111111,0.14472848075079103,-0.615,0.79,-0.41,1,100
-0.39516666666666667,0.1653774302752478,-0.665,0.875,-0.425,0,100
-0.30569444444444444,0.17296536574387827,-0.545,1.09,-0.3225,0,100
-0.3133472222222222,0.16681819442819765,-0.535,1.005,-0.33,0,100
-0.34569444444444447,0.1536615724832487,-0.625,0.84,-0.36,0,100
-0.34891666666666665,0.19323149257360256,-0.6,1.035,-0.375,0,100
-0.2743472222222222,0.1789088967201388,-0.55,1.11,-0.3,0,100
-0.23505555555555557,0.16182680118029555,-0.48,1.075,-0.25,0,100
-0.227625,0.1542017471348637,-0.57,1.005,-0.245,0,100
-0.2831388888888889,0.19667586882112204,-0.515,1.055,-0.305,0,100
-0.29365277777777776,0.16577613416577977,-0.585,1.0,-0.325,0,100
-0.25077777777777777,0.17426019994235806,-0.49,1.14,-0.265,0,100
-0.26826388888888886,0.15871042753108178,-0.535,1.025,-0.28,0,100
-0.29068055555555555,0.1567753015543875,-0.535,0.93,-0.295,0,100
-0.30922222222222223,0.160767103999528,-0.57,0.975,-0.32,0,100
-0.24191666666666667,0.17743525814598782,-0.485,1.175,-0.27,0,100
-0.2649583333333333,0.17108375446449223,-0.53,1.135,-0.305,1,100
-0.3032222222222222,0.17255443764394263,-0.525,0.975,-0.305,0,100
-0.3753194444444445,0.16127950431100188,-0.66,0.835,-0.37,0,100
-0.36031944444444447,0.17830753913057762,-0.62,1.035,-0.38,0,100
-0.33754166666666663,0.15988146108045867,-0.59,1.015,-0.355,0,100
-0.37047222222222226,0.14819721959288484,-0.63,0.87,-0.385,0,100
-0.4424861111111111,0.16237944186513298,-0.675,0.805,-0.44,0,100
-0.39661111111111114,0.19563192164223123,-0.665,0.955,-0.4275,0,100
-0.3685416666666666,0.16958576472458478,-0.61,0.995,-0.395,0,100
-0.3265277777777778,0.16592384232116036,-0.62,0.995,-0.345,0,100
-0.35447222222222224,0.15973241271839445,-0.58,0.885,-0.36,0,100
-0.3492222222222222,0.1636822991704613,-0.57,0.98,-0.37,0,100
-0.31995833333333334,0.1790280423021923,-0.575,1.11,-0.335,0,100
-0.3253194444444445,0.1615075528324096,-0.58,1.015,-0.34,0,100
-0.3538055555555556,0.15375066746818886,-0.62,0.9,-0.36,0,100
-0.37775000000000003,0.16444331596835024,-0.635,0.925,-0.39,0,100
-0.3103472222222222,0.1822123425294284,-0.56,1.105,-0.335,0,100
-0.2963472222222222,0.17758270058718983,-0.555,1.08,-0.315,0,100
-0.2989583333333333,0.15946990638257325,-0.55,0.945,-0.315,0,100
-0.32890277777777777,0.16925155175082363,-0.57,1.0,-0.335,0,100
-0.2966527777777778,0.19012599329291427,-0.55,1.155,-0.31,0,100
-0.28555555555555556,0.18858566347720018,-0.545,1.205,-0.305,0,100
-0.2862222222222222,0.16417903694698513,-0.545,1.08,-0.3,0,100
-0.3102916666666667,0.165962632800613,-0.59,0.99,-0.315,0,100
-0.33716666666666667,0.19065756097138017,-0.635,1.04,-0.345,0,100
-0.3159722222222222,0.20614557775609707,-0.535,1.12,-0.335,0,100
-0.23961111111111116,0.19353434633128183,-0.48,1.285,-0.27,0,100
-0.2932222222222222,0.1637712006820476,-0.58,1.01,-0.3125,0,100
-0.3328333333333333,0.1503155015292834,-0.58,0.895,-0.34,0,100
-0.3229027777777778,0.14391878108099548,-0.575,0.895,-0.335,0,100
-0.3037916666666667,0.15773967103884945,-0.56,0.975,-0.315,0,100
-0.2577083333333334,0.16143913864398282,-0.52,1.095,-0.3,0,100
-0.1825138888888889,0.1715088265509287,-0.425,1.22,-0.2,0,100
-0.19158333333333333,0.17317659179128236,-0.425,1.17,-0.205,0,100
-0.24698611111111113,0.18472806538377456,-0.54,1.095,-0.265,0,100
-0.26475,0.22157910237906261,-0.525,1.305,-0.2875,0,100
-0.29641666666666666,0.17284287582142985,-0.575,1.12,-0.315,0,100
-0.2911388888888889,0.16459911785536832,-0.535,1.035,-0.3,0,100
-0.2552361111111111,0.17114244335701734,-0.51,1.13,-0.285,0,100
-0.19091666666666668,0.18952460628870563,-0.43,1.285,-0.21,0,100
-0.19833333333333336,0.18364443301602631,-0.455,1.24,-0.2175,0,100
-0.2682916666666667,0.17195222507526134,-0.51,1.035,-0.27,0,100
-0.27597222222222223,0.16767577611289514,-0.545,1.085,-0.285,0,100
-0.27544444444444444,0.17270502219494957,-0.53,1.1,-0.29,0,100
-0.26663888888888887,0.16201837220543466,-0.53,1.025,-0.28,0,100
-0.298625,0.16069548820846075,-0.55,0.97,-0.3,0,100
-0.277625,0.18000998718435351,-0.55,1.135,-0.29,0,100
-0.25834722222222223,0.16794874877326765,-0.515,1.07,-0.285,0,100
-0.2482638888888889,0.17479384627608507,-0.485,1.03,-0.255,0,100
-0.27529166666666666,0.16607348085009438,-0.55,1.02,-0.28,0,100
-0.27281944444444445,0.193923762682722,-0.535,1.155,-0.29,0,100
-0.2994861111111111,0.16962605875011882,-0.575,1.06,-0.3175,0,100
-0.30569444444444444,0.18793192021528027,-0.59,1.01,-0.32,0,100
-0.2982222222222222,0.17795530198949633,-0.56,1.055,-0.31,0,100
-0.29318055555555556,0.17142688159394573,-0.545,1.075,-0.3,0,100
-0.3083194444444445,0.16430838437970577,-0.545,0.935,-0.315,0,100
-0.33297222222222217,0.1666572474190185,-0.585,0.99,-0.355,0,100
-0.29718055555555556,0.17929463076710797,-0.555,1.13,-0.31,0,100
-0.2804861111111111,0.15975058624962463,-0.55,1.05,-0.295,0,100
-0.281125,0.1580850630286675,-0.555,0.965,-0.285,0,100
-0.272,0.1723828910046212,-0.5,1.07,-0.28,0,100
-0.2498055555555556,0.1906209618070555,-0.545,1.16,-0.265,0,100
-0.26708333333333334,0.1720928165264315,-0.545,1.03,-0.28,0,100
-0.30359722222222224,0.1585096964894351,-0.58,0.93,-0.305,0,100
-0.2949722222222222,0.23481405008492134,-0.57,1.19,-0.325,0,100
-0.3114305555555556,0.17275816642450806,-0.565,1.085,-0.32,0,100
-0.279375,0.16243147593677773,-0.53,1.045,-0.305,0,100
-0.2765694444444444,0.15967448018363353,-0.535,0.99,-0.28,0,100
-0.23727777777777778,0.1693597602592237,-0.495,1.115,-0.25,0,100
-0.24695833333333334,0.19626579465810587,-0.54,1.19,-0.27,0,100
-0.303375,0.16973119577568657,-0.565,1.02,-0.315,0,100
-0.34070833333333334,0.1639926690011206,-0.585,0.935,-0.335,0,100
-0.2729722222222222,0.19923861826004724,-0.505,1.17,-0.315,0,100
-0.22220833333333334,0.17969549378354235,-0.465,1.24,-0.24,0,100
-0.1920138888888889,0.20250147414110592,-0.45,1.315,-0.21,0,100
-0.25627777777777777,0.1659192593320135,-0.51,1.035,-0.265,0,100
-0.2655555555555556,0.17309630338893314,-0.51,1.125,-0.29,0,100
-0.26481944444444444,0.19431084249419142,-0.59,1.195,-0.28,0,100
-0.2822777777777778,0.17321776774259734,-0.535,1.085,-0.3,0,100
-0.31016666666666665,0.17992313173500882,-0.585,1.04,-0.315,0,100
-0.2675,0.17870521972106898,-0.495,1.185,-0.295,0,100
-0.22951388888888888,0.1892040339785741,-0.495,1.255,-0.24,0,100
-0.23656944444444442,0.16933643586305477,-0.475,1.14,-0.25,0,100
-0.28909722222222217,0.1663253304456044,-0.545,0.99,-0.285,0,100
-0.2600277777777778,0.18378580318027093,-0.5,1.16,-0.275,0,100
-0.2673611111111111,0.18596365427114123,-0.535,1.17,-0.28,0,100
-0.26466666666666666,0.1711437018025106,-0.51,1.09,-0.28,0,100
-0.2777222222222222,0.16140255249102253,-0.515,1.005,-0.285,0,100
-0.24990277777777778,0.18108869525135882,-0.49,1.145,-0.28,0,100
-0.26145833333333335,0.1986807837196251,-0.565,1.28,-0.3,1,100
-0.2534722222222222,0.17209662759158023,-0.475,1.15,-0.265,0,100
-0.29769444444444443,0.17078768812060266,-0.545,1.015,-0.295,0,100
-0.25690277777777776,0.1818693181412765,-0.475,1.18,-0.2875,0,100
-0.21330555555555553,0.1845762142260608,-0.455,1.255,-0.23,0,100
-0.23345833333333335,0.17176671336275967,-0.475,1.175,-0.26,0,100
-0.2897638888888889,0.21080899023204472,-0.55,1.19,-0.295,0,100
-0.27112499999999995,0.1921777199408575,-0.485,1.25,-0.285,0,100
-0.25570833333333337,0.19161734419728874,-0.49,1.24,-0.27,0,100
-0.25790277777777776,0.22100899678282468,-0.52,1.31,-0.28,0,100
-0.32906944444444447,0.16842994969792907,-0.605,0.965,-0.34,0,100
-0.31344444444444447,0.16912543741332026,-0.545,1.075,-0.34,0,100
-0.2856388888888889,0.18613281589854322,-0.52,1.215,-0.3,0,100
-0.2674722222222222,0.17499483898915277,-0.535,1.16,-0.29,0,100
-0.2770138888888889,0.1678744978527739,-0.525,1.03,-0.285,0,100
-0.22822222222222222,0.1836475505948995,-0.47,1.22,-0.245,0,100
-0.2222222222222222,0.21288737386378104,-0.47,1.27,-0.25,0,100
-0.263875,0.23101147984341483,-0.52,1.18,-0.295,0,100
-0.34573611111111113,0.1659085250853242,-0.585,0.93,-0.35,0,100
-0.25195833333333334,0.22075466759253104,-0.5,1.29,-0.295,0,100
-0.2500972222222222,0.16852028889739576,-0.5,1.12,-0.27,0,100
-0.2850972222222222,0.15602503001853243,-0.52,0.97,-0.3,0,100
-0.34440277777777784,0.16027577446754965,-0.62,0.92,-0.3425,0,100
-0.30833333333333335,0.17547594010449283,-0.555,1.11,-0.325,0,100
-0.28501388888888884,0.16529834080766034,-0.515,1.05,-0.305,0,100
-0.2845833333333333,0.1770039037548168,-0.555,1.02,-0.3,0,100
-0.334375,0.15752543335213454,-0.555,0.92,-0.335,0,100
-0.2880694444444445,0.1708998509840135,-0.53,1.09,-0.315,0,100
-0.26163888888888887,0.16970876242318747,-0.495,1.125,-0.275,0,100
-0.27865277777777775,0.18269830624117744,-0.53,1.09,-0.295,0,100
-0.37186111111111114,0.15681423064281752,-0.605,0.835,-0.3825,0,100
-0.367125,0.15910905916488016,-0.59,0.91,-0.4,0,100
-0.33927777777777773,0.1777116283182003,-0.595,1.05,-0.355,0,100
-0.344375,0.166164530034742,-0.615,0.975,-0.36,0,100
-0.38675000000000004,0.1600746136788855,-0.62,0.845,-0.395,0,100
-0.35475,0.1693855521518225,-0.66,0.99,-0.39,0,100
-0.33998611111111104,0.16917343935995552,-0.58,1.06,-0.35,0,100
-0.35120833333333334,0.15616096907962912,-0.585,0.975,-0.3725,0,100
-0.4008611111111111,0.154551618988928,-0.65,0.85,-0.405,0,100
-0.3410555555555555,0.1928157503427739,-0.58,1.11,-0.38,0,100
-0.3043194444444444,0.17856611181458884,-0.585,1.105,-0.315,0,100
-0.3207083333333333,0.18047733294885906,-0.575,1.05,-0.345,0,100
-0.3750833333333333,0.15853099504162865,-0.655,0.845,-0.38,0,100
-0.3201111111111111,0.1646996049677813,-0.51,1.01,-0.355,0,100
-0.2710694444444445,0.17376079713765583,-0.52,1.125,-0.29,0,100
-0.3040277777777778,0.15651730222266713,-0.54,0.975,-0.32,0,100
-0.3908472222222222,0.15389946752147995,-0.635,0.835,-0.395,0,100
-0.34447222222222224,0.16605972588718912,-0.565,0.995,-0.385,0,100
-0.2645972222222222,0.16511331628462367,-0.495,1.08,-0.3,0,100
-0.2307916666666667,0.20024741207233282,-0.49,1.125,-0.265,0,100
-0.3066527777777778,0.15311299020678074,-0.56,0.915,-0.305,0,100
-0.28463888888888894,0.16341157186988825,-0.51,1.07,-0.305,0,100
-0.2672777777777778,0.17260610442261484,-0.505,1.095,-0.28,0,100
-0.3187361111111111,0.16311337170606519,-0.56,0.955,-0.335,0,100
-0.39840277777777783,0.15647245584040786,-0.625,0.81,-0.395,0,100
-0.3136527777777778,0.1730777089217941,-0.56,1.06,-0.355,0,100
-0.22968055555555555,0.17070473423013272,-0.485,1.135,-0.25,0,100
-0.23709722222222224,0.17190631813434368,-0.485,1.06,-0.255,0,100
-0.3235138888888889,0.15958609597744094,-0.56,0.885,-0.31,0,100
-0.281875,0.1722458625127982,-0.49,1.115,-0.295,0,100
-0.3030555555555555,0.16646979112747362,-0.545,1.015,-0.315,0,100
-0.3193472222222222,0.15467817483427238,-0.57,0.935,-0.335,0,100
-0.3569027777777778,0.1658050360884251,-0.61,0.86,-0.36,0,100
-0.2786388888888889,0.18077021214449418,-0.555,1.1,-0.305,0,100
-0.2568611111111111,0.16579566620421285,-0.505,1.065,-0.27,0,100
-0.28226388888888887,0.16240022518590327,-0.565,1.0,-0.3,0,100
-0.3492361111111111,0.15223442203241422,-0.62,0.875,-0.345,0,100
-0.2938888888888889,0.1794649111135312,-0.535,1.105,-0.325,0,100
-0.2574444444444445,0.16400244653399473,-0.505,1.105,-0.27,0,100
-0.2640694444444444,0.16808656222224116,-0.54,1.015,-0.28,0,100
-0.3251527777777778,0.15829136809853583,-0.51,0.93,-0.36,1,100
-0.2780138888888889,0.17786624914490254,-0.505,1.12,-0.31,0,100
-0.24531944444444445,0.16632246343815318,-0.495,1.075,-0.265,0,100
-0.26268055555555553,0.15835208892325364,-0.515,0.99,-0.275,0,100
-0.332625,0.16296935955196537,-0.605,0.95,-0.335,0,100
-0.2562361111111111,0.1767772840057005,-0.555,1.165,-0.28,0,100
-0.2624722222222223,0.16610446614356733,-0.525,1.06,-0.275,0,100
-0.34451388888888884,0.19887104930467683,-0.62,1.005,-0.37,0,100
-0.36652777777777773,0.1701948207383904,-0.605,0.96,-0.39,0,100
-0.34423611111111113,0.17893911853038758,-0.58,1.05,-0.365,0,100
-0.34687500000000004,0.19067503896973803,-0.605,1.02,-0.37,0,100
-0.4237777777777778,0.15733158740399758,-0.67,0.8,-0.425,0,100
-0.39244444444444443,0.16298729405905035,-0.62,0.935,-0.435,0,100
-0.29312499999999997,0.17183615722703868,-0.52,1.105,-0.315,0,100
-0.2689027777777778,0.18545208723266132,-0.5,1.15,-0.29,0,100
-0.3551944444444445,0.19350198383198444,-0.605,0.95,-0.38,0,100
-0.34751388888888884,0.16354662884663432,-0.595,0.97,-0.39,0,100
-0.2745833333333333,0.17897383033405873,-0.525,1.165,-0.295,0,100
-0.28558333333333336,0.18458683217150434,-0.52,1.1,-0.305,0,100
-0.38111111111111107,0.16489816348579403,-0.62,0.88,-0.395,0,100
-0.353375,0.16577867084861467,-0.59,0.955,-0.4,0,100
-0.23766666666666666,0.17333645830516378,-0.475,1.145,-0.27,0,100
-0.2143611111111111,0.1741351889860573,-0.46,1.115,-0.235,0,100
-0.2930416666666667,0.171728503223677,-0.525,0.955,-0.3125,0,100
-0.30519444444444443,0.16413820725305525,-0.535,0.98,-0.345,0,100
-0.2490694444444445,0.1747598611419625,-0.495,1.15,-0.265,0,100
-0.2536527777777778,0.15893370033883647,-0.485,1.035,-0.27,0,100
-0.30227777777777776,0.1553609794981265,-0.595,0.925,-0.3,0,100
-0.22286111111111112,0.1957730620412003,-0.48,1.15,-0.26,0,100
-0.20259722222222223,0.17204728514457088,-0.455,1.12,-0.215,0,100
-0.2615,0.16578215290622275,-0.53,0.995,-0.285,0,100
-0.3854166666666667,0.16418136567020428,-0.665,0.805,-0.38,0,100
-0.3402222222222222,0.1825029088217365,-0.565,1.04,-0.38,0,100
-0.2810972222222222,0.1735054561839981,-0.53,1.11,-0.31,0,100
-0.2936944444444444,0.16606672344513357,-0.555,0.95,-0.31,0,100
-0.3643055555555555,0.15688306321809042,-0.605,0.865,-0.36,0,100
-0.28918055555555555,0.18904756356160807,-0.52,1.14,-0.315,0,100
-0.2756388888888889,0.17768576394825933,-0.52,1.08,-0.295,0,100
-0.3348888888888889,0.16115680386536202,-0.585,0.895,-0.35,0,100
-0.3204722222222222,0.15942579013989044,-0.56,0.965,-0.365,0,100
-0.22540277777777773,0.1844851439157562,-0.46,1.2,-0.255,0,100
-0.19650000000000004,0.16202614672398472,-0.44,1.145,-0.215,0,100
-0.2617916666666667,0.15605482810538093,-0.515,0.965,-0.27,0,100
-0.2547638888888889,0.1596998480705772,-0.485,1.055,-0.295,0,100
-0.18700000000000003,0.17665849037683476,-0.435,1.205,-0.205,0,100
-0.2217638888888889,0.17264731978609163,-0.48,1.095,-0.235,0,100
-0.32098611111111114,0.16428696886981664,-0.575,0.9,-0.34,0,100
-0.3310416666666667,0.16214563391353534,-0.565,0.945,-0.37,0,100
-0.22330555555555556,0.2107523980942308,-0.455,1.305,-0.265,0,100
-0.19581944444444446,0.17903548115053192,-0.445,1.215,-0.22,0,100
-0.2637916666666667,0.17826984364378004,-0.52,1.03,-0.285,0,100
-0.3262222222222222,0.16408595496654782,-0.565,0.925,-0.35,0,100
-0.24044444444444446,0.22203683934133847,-0.495,1.305,-0.27,0,100
-0.2497361111111111,0.18055854644958697,-0.575,1.145,-0.265,0,100
-0.299625,0.18528487357310094,-0.57,1.02,-0.33,0,100
-0.34787500000000005,0.16032431865683314,-0.625,0.925,-0.3675,0,100
-0.2683888888888889,0.17007486550499815,-0.5,1.125,-0.285,0,100
-0.2600277777777778,0.16389995019169315,-0.575,1.085,-0.275,0,100
-0.29427777777777775,0.15806962444707556,-0.535,0.94,-0.3125,0,100
-0.3435138888888889,0.1719195542701065,-0.64,0.955,-0.36,0,100
-0.295875,0.18430914077983218,-0.525,1.16,-0.315,0,100
-0.28347222222222224,0.17177674239662089,-0.55,1.075,-0.305,0,100
-0.3207361111111111,0.19306648200494417,-0.57,1.055,-0.345,0,100
-0.34724999999999995,0.16175708382221368,-0.565,0.945,-0.375,0,100
-0.29336111111111113,0.17845776854572903,-0.53,1.155,-0.305,0,100
-0.2953888888888889,0.23066627863379907,-0.555,1.255,-0.325,0,100
-0.3844861111111112,0.15993080040508106,-0.655,0.84,-0.39,0,100
-0.3850555555555556,0.1681232095227988,-0.66,0.92,-0.415,0,100
-0.28818055555555555,0.18618116374387794,-0.605,1.165,-0.325,0,100
-0.25884722222222223,0.17208683690720913,-0.515,1.11,-0.285,0,100
-0.3115833333333333,0.16030091061639185,-0.55,0.99,-0.315,0,100
-0.2915,0.17010364487570515,-0.59,1.11,-0.32,0,100
-0.2289861111111111,0.18445155138165353,-0.53,1.225,-0.25,0,100
-0.2361111111111111,0.19214111969212425,-0.52,1.205,-0.26,0,100
-0.31129166666666663,0.1798291965464884,-0.57,1.005,-0.32,0,100
-0.30745833333333333,0.19382587671957302,-0.545,1.145,-0.34,0,100
-0.26990277777777777,0.18609079024633696,-0.535,1.165,-0.285,0,100
-0.27190277777777777,0.16778683233017738,-0.56,1.08,-0.29,0,100
-0.34777777777777785,0.1604245428561892,-0.6,0.915,-0.35,0,100
-0.3234722222222222,0.17432934764582034,-0.565,1.08,-0.35,0,100
-0.2729722222222222,0.17108980522116823,-0.52,1.135,-0.295,0,100
-0.2797777777777778,0.16741691324208008,-0.575,1.045,-0.2925,0,100
-0.3090555555555556,0.16239166379200565,-0.555,0.945,-0.3175,0,100
-0.24012499999999998,0.17019489951066233,-0.465,1.115,-0.275,0,100
-0.19219444444444445,0.19533316544993418,-0.47,1.235,-0.21,0,100
-0.24840277777777778,0.1723957543079152,-0.485,1.14,-0.275,1,100
-0.3064861111111111,0.1644285553275305,-0.53,0.96,-0.3,0,100
-0.30336111111111114,0.1737885293455778,-0.55,1.03,-0.325,0,100
-0.3203333333333333,0.18107710144208372,-0.575,1.135,-0.355,1,100
-0.3086527777777778,0.16248992786923938,-0.525,1.0,-0.32,0,100
-0.3398333333333333,0.15710125892415872,-0.585,0.885,-0.3475,0,100
-0.3453055555555556,0.16322289113772623,-0.63,0.945,-0.355,0,100
-0.2893055555555556,0.17291838464117568,-0.53,1.105,-0.31,0,100
-0.28970833333333335,0.1552591415719753,-0.53,0.99,-0.305,0,100
-0.3330694444444445,0.15594722454771612,-0.55,0.905,-0.345,0,100
-0.34983333333333333,0.1602640182809465,-0.59,0.955,-0.37,0,100
-0.26616666666666666,0.19957044147646494,-0.495,1.24,-0.3,0,100
-0.24134722222222219,0.2095184399019585,-0.505,1.155,-0.27,0,100
-0.3114722222222222,0.15205097575614257,-0.565,0.92,-0.32,0,100
-0.3514305555555555,0.16110502323268033,-0.605,0.91,-0.36,0,100
-0.32059722222222226,0.17762981635680034,-0.545,1.11,-0.335,0,100
-0.34127777777777774,0.16614302926346175,-0.575,0.96,-0.36,0,100
-0.38266666666666665,0.15237781990827928,-0.625,0.82,-0.395,0,100
-0.3862083333333333,0.1571632146580957,-0.615,0.86,-0.41,0,100
-0.30456944444444445,0.17746915431427707,-0.54,1.09,-0.335,0,100
-0.29002777777777783,0.17352072980724667,-0.53,1.075,-0.305,0,100
-0.2928194444444444,0.15001725145137373,-0.53,0.95,-0.305,0,100
-0.30694444444444446,0.15356629846646483,-0.525,0.935,-0.32,0,100
-0.2552222222222222,0.17595400458186528,-0.495,1.145,-0.28,0,100
-0.22719444444444442,0.16299127779056913,-0.465,1.1,-0.2425,0,100
-0.21970833333333334,0.1909573423495997,-0.47,1.11,-0.245,0,100
-0.2753611111111111,0.15910254428752996,-0.515,0.955,-0.28,0,100
-0.2679722222222222,0.16995971517965844,-0.5,1.055,-0.285,0,100
-0.2593888888888889,0.16750717692381914,-0.515,1.035,-0.275,0,100
-0.24918055555555554,0.15293774390516707,-0.52,0.995,-0.27,0,100
-0.2814305555555556,0.1516074817111691,-0.515,0.905,-0.285,0,100
-0.2644444444444444,0.2047989453700662,-0.52,1.17,-0.285,0,100
-0.2658611111111111,0.17056102732807948,-0.525,1.105,-0.28,0,100
-0.25195833333333334,0.1555946869183592,-0.52,0.99,-0.275,0,100
-0.2559166666666667,0.15778543359751415,-0.495,1.0,-0.26,0,100
-0.21318055555555557,0.20270245890007305,-0.45,1.3,-0.245,0,100
-0.192625,0.1718311863347926,-0.45,1.155,-0.215,0,100
-0.19755555555555557,0.15113872296750067,-0.44,1.05,-0.22,0,100
-0.23744444444444446,0.1651051759812589,-0.49,0.985,-0.25,0,100
-0.2840138888888889,0.16183431968936932,-0.535,1.02,-0.285,0,100
-0.28002777777777776,0.180505076276897,-0.53,1.13,-0.305,0,100
-0.31493055555555555,0.17371211228710254,-0.535,1.07,-0.36,1,100
-0.3336388888888889,0.17075390881775798,-0.58,0.955,-0.33,0,100
-0.3202638888888889,0.16652785828466218,-0.575,0.995,-0.33,0,100
-0.30031944444444447,0.18158131224122956,-0.55,1.125,-0.315,0,100
-0.2754166666666667,0.20048543518725298,-0.54,1.225,-0.3125,0,100
-0.2786666666666667,0.15917373457256628,-0.515,0.995,-0.29,0,100
-0.2690138888888889,0.17109674757084364,-0.515,1.1,-0.2775,0,100
-0.259875,0.17572800459011143,-0.51,1.1,-0.28,0,100
-0.3009722222222222,0.17764751086712122,-0.505,1.08,-0.345,1,100
-0.3521527777777778,0.1823336882783125,-0.615,0.945,-0.36,0,100
-0.3320138888888889,0.1663836340989932,-0.59,1.01,-0.35,0,100
-0.28777777777777774,0.1822092220972472,-0.545,1.17,-0.31,0,100
-0.29486111111111113,0.1652388259422265,-0.595,1.06,-0.315,0,100
-0.31024999999999997,0.15040757128549082,-0.575,0.945,-0.315,0,100
-0.29933333333333334,0.23040236543924633,-0.525,1.225,-0.325,0,100
-0.29436111111111113,0.18042814094040285,-0.54,1.105,-0.315,0,100
-0.275125,0.20678537837171496,-0.53,1.185,-0.305,0,100
-0.28341666666666665,0.15551123128428876,-0.54,0.965,-0.295,0,100
-0.28623611111111114,0.16563409245948293,-0.54,1.03,-0.29,0,100
-0.27426388888888886,0.17117267054185986,-0.52,1.15,-0.29,0,100
-0.29618055555555556,0.1792954828696728,-0.625,1.11,-0.305,0,100
-0.35013888888888883,0.160603402616815,-0.64,0.91,-0.355,0,100
-0.33998611111111116,0.23189122767747258,-0.59,1.17,-0.37,0,100
-0.323625,0.18266236593933505,-0.575,1.12,-0.345,0,100
-0.30344444444444446,0.17111139069241227,-0.555,1.08,-0.32,0,100
-0.32705555555555554,0.15733658973403422,-0.585,0.91,-0.33,0,100
-0.35406944444444444,0.15947581899503072,-0.635,0.94,-0.35,0,100
-0.31569444444444444,0.18491459281463554,-0.54,1.16,-0.335,0,100
-0.29704166666666665,0.1638768539601883,-0.54,1.05,-0.31,0,100
-0.300625,0.151308958894266,-0.565,0.92,-0.305,0,100
-0.3385277777777778,0.1569263780162021,-0.595,0.91,-0.3725,1,100
-0.3077777777777778,0.17671832752702993,-0.535,1.135,-0.33,0,100
-0.3015416666666667,0.1670779872378299,-0.565,1.03,-0.31,0,100
-0.31252777777777774,0.15047240169825,-0.57,0.93,-0.32,0,100
-0.3408611111111111,0.15795685992942957,-0.55,0.935,-0.35,0,100
-0.33468055555555554,0.17805225718473847,-0.58,1.11,-0.35,0,100
-0.3105555555555556,0.1698155771621484,-0.57,1.015,-0.3375,0,100
-0.3063055555555556,0.17015218995626702,-0.57,1.03,-0.34,1,100
-0.29588888888888887,0.1623748711021262,-0.56,0.99,-0.315,0,100
-0.287875,0.17888465693320688,-0.59,1.105,-0.3,0,100
-0.2880555555555555,0.1733528746107271,-0.56,1.12,-0.295,0,100
-0.2748472222222222,0.15726937786646888,-0.545,1.03,-0.29,0,100
-0.2869861111111111,0.15138210420576612,-0.53,0.94,-0.295,0,100
-0.2785694444444444,0.21685753300707256,-0.535,1.195,-0.295,0,100
-0.3005277777777778,0.181094663107925,-0.605,1.14,-0.305,0,100
-0.2902083333333333,0.20787956833358,-0.575,1.19,-0.315,0,100
-0.29925,0.1886133427293932,-0.55,1.035,-0.3125,0,100
-0.3247638888888889,0.17346153056189878,-0.595,0.985,-0.325,0,100
-0.31054166666666666,0.18087917525703912,-0.56,1.15,-0.325,0,100
-0.30020833333333335,0.16978261734576297,-0.575,1.09,-0.315,0,100
-0.2944305555555556,0.15818509081214613,-0.515,0.945,-0.3,0,100
-0.27370833333333333,0.20906919624718615,-0.52,1.19,-0.285,0,100
-0.24591666666666667,0.24257156733174187,-0.49,1.435,-0.27,0,100
-0.2439027777777778,0.1720912354700764,-0.52,1.14,-0.265,0,100
-0.235125,0.16741058455021426,-0.545,1.03,-0.245,0,100
-0.2551111111111111,0.1695475642503008,-0.485,1.085,-0.2575,0,100
-0.26209722222222226,0.1810102176153955,-0.495,1.215,-0.275,0,100
-0.2716666666666667,0.1740517962497882,-0.53,1.11,-0.285,0,100
-0.2554444444444444,0.18054684594377965,-0.52,1.09,-0.275,0,100
-0.26861111111111113,0.17077849164890918,-0.5,1.06,-0.275,0,100
-0.24281944444444442,0.1850965458580474,-0.495,1.225,-0.27,0,100
-0.2066666666666667,0.17523753720149243,-0.485,1.205,-0.23,0,100
-0.20097222222222222,0.16547121033768164,-0.445,1.125,-0.22,0,100
-0.23247222222222222,0.16301115948696257,-0.48,1.075,-0.245,0,100
-0.18383333333333335,0.1765873249509526,-0.435,1.265,-0.225,0,100
-0.1553888888888889,0.17991854295420867,-0.445,1.275,-0.17,0,100
-0.19349999999999998,0.22412168074012334,-0.475,1.325,-0.23,0,100
-0.2785694444444444,0.17285622047021312,-0.545,1.035,-0.285,0,100
-0.2764305555555555,0.17775324863329883,-0.56,1.13,-0.295,0,100
-0.2218611111111111,0.1836187403861263,-0.49,1.23,-0.24,0,100
-0.21156944444444442,0.1684491207711701,-0.485,1.205,-0.24,0,100
-0.27058333333333334,0.1671491142330371,-0.495,1.045,-0.295,1,100
-0.29658333333333337,0.18115484092038195,-0.535,1.155,-0.31,0,100
-0.26684722222222224,0.1797470954580832,-0.525,1.18,-0.28,0,100
-0.2639861111111111,0.17049441934949364,-0.49,1.1,-0.285,0,100
-0.29770833333333335,0.17387483025792497,-0.54,1.03,-0.305,0,100
-0.2693888888888889,0.2188829948445031,-0.52,1.325,-0.305,0,100
-0.20227777777777775,0.18442765987886706,-0.475,1.24,-0.23,0,100
-0.19004166666666664,0.16449226911080722,-0.46,1.14,-0.21,0,100
-0.2627638888888889,0.17468881006708564,-0.495,1.07,-0.285,0,100
-0.328625,0.19114163142520493,-0.58,1.15,-0.335,0,100
-0.31656944444444446,0.19817632625664514,-0.63,1.195,-0.355,0,100
-0.28752777777777777,0.17238240534590388,-0.57,1.08,-0.305,0,100
-0.3229166666666667,0.17303931393376093,-0.57,1.03,-0.36,1,100
-0.25925,0.1903946741493691,-0.51,1.26,-0.3,0,100
-0.23661111111111113,0.17895464629927543,-0.5,1.2,-0.255,0,100
-0.23573611111111115,0.16321917720384072,-0.485,1.135,-0.265,0,100
-0.27418055555555554,0.16775257295500623,-0.51,1.045,-0.28,0,100
-0.25705555555555554,0.17945812641338496,-0.53,1.18,-0.28,0,100
-0.22434722222222223,0.19105134270095958,-0.53,1.23,-0.24,0,100
-0.219375,0.1674202494639031,-0.485,1.125,-0.235,0,100
-0.24848611111111107,0.1944307926755227,-0.505,1.14,-0.26,0,100
-0.2855,0.17137523806612853,-0.62,1.05,-0.295,0,100
-0.2671111111111111,0.17940097512706896,-0.56,1.2,-0.275,0,100
-0.27426388888888886,0.16773143158165704,-0.565,1.065,-0.29,0,100
-0.2796111111111111,0.15911775474956655,-0.525,0.975,-0.29,0,100
-0.32543055555555556,0.16470224197260483,-0.57,0.97,-0.335,0,100
-0.2585138888888889,0.2165395776665034,-0.515,1.235,-0.295,0,100
-0.26708333333333334,0.18767723105255885,-0.55,1.11,-0.28,0,100
-0.2876666666666667,0.15619868046106464,-0.57,0.97,-0.2925,0,100
-0.2906666666666667,0.20404173048123703,-0.52,1.155,-0.305,0,100
-0.28368055555555555,0.18204317454848823,-0.555,1.19,-0.295,0,100
-0.2768472222222222,0.19205646303179685,-0.53,1.13,-0.2975,0,100
-0.3055277777777778,0.14750800093386857,-0.54,0.91,-0.31,0,100
-0.30069444444444443,0.1670539366399774,-0.545,1.005,-0.315,0,100
-0.23381944444444444,0.20967582958176764,-0.485,1.325,-0.27,0,100
-0.20245833333333335,0.17073411244615933,-0.475,1.175,-0.225,0,100
-0.21648611111111113,0.16407890996708763,-0.47,1.085,-0.235,0,100
-0.28727777777777774,0.15443069483160674,-0.5,0.95,-0.285,0,100
-0.2593333333333333,0.16801818684627898,-0.545,1.11,-0.28,0,100
-0.2360833333333333,0.18386572319675754,-0.495,1.225,-0.25,0,100
-0.25354166666666667,0.16607862407606827,-0.51,1.065,-0.27,0,100
-0.29388888888888887,0.16055767011294966,-0.545,0.935,-0.295,0,100
-0.30772222222222223,0.1612264816804663,-0.575,1.005,-0.32,0,100
-0.29458333333333336,0.17779777448300954,-0.535,1.12,-0.305,0,100
-0.31369444444444444,0.1653962950418789,-0.585,1.025,-0.33,0,100
-0.3457361111111111,0.1653038442330059,-0.58,0.905,-0.36,0,100
-0.36281944444444447,0.15956245088686963,-0.635,0.925,-0.385,0,100
-0.2874027777777778,0.17758563346877523,-0.535,1.1,-0.315,0,100
-0.2540972222222222,0.16969442796147682,-0.51,1.1,-0.27,0,100
-0.27431944444444445,0.17216399049137304,-0.545,0.975,-0.29,0,100
-0.3404861111111111,0.1624259654474715,-0.595,0.97,-0.35,0,100
-0.2833472222222222,0.19003136873525658,-0.525,1.185,-0.31,0,100
-0.2828888888888889,0.16960407781028303,-0.525,1.08,-0.3,0,100
-0.3153611111111111,0.15551574639419383,-0.57,0.92,-0.325,0,100
-0.3334166666666667,0.19378465639868278,-0.59,1.045,-0.355,0,100
-0.29456944444444444,0.1840856402744302,-0.575,1.14,-0.315,0,100
-0.2620416666666667,0.17129145382294406,-0.54,1.125,-0.285,0,100
-0.24718055555555554,0.16302064681683803,-0.53,1.04,-0.265,0,100
-0.29894444444444446,0.16170058827015313,-0.55,0.98,-0.2975,0,100
-0.28230555555555553,0.17648919064231738,-0.52,1.14,-0.3025,0,100
-0.2550833333333334,0.16756008457996327,-0.525,1.13,-0.27,0,100
-0.2497777777777778,0.1585422500840971,-0.485,1.02,-0.255,0,100
-0.26329166666666665,0.1714138459904048,-0.525,1.055,-0.27,0,100
-0.22581944444444446,0.18283746017743685,-0.515,1.235,-0.25,0,100
-0.23343055555555556,0.18180948716146134,-0.505,1.2,-0.25,0,100
-0.28341666666666665,0.16094639808195632,-0.59,0.995,-0.295,0,100
-0.34341666666666665,0.1591295550103053,-0.595,0.96,-0.345,0,100
-0.3485138888888889,0.1843425248654402,-0.64,1.11,-0.36,0,100
-0.3688055555555556,0.16723890420666754,-0.635,0.995,-0.39,0,100
-0.3977083333333334,0.20629727993440275,-0.63,1.035,-0.42,0,100
-0.3919722222222223,0.1717030683268051,-0.64,0.985,-0.43,0,100
-0.3242638888888889,0.20195695313162623,-0.565,1.135,-0.345,0,100
-0.34600000000000003,0.16680194509923707,-0.63,1.04,-0.36,0,100
-0.3879166666666666,0.15870296766111353,-0.635,0.865,-0.4,0,100
-0.3978472222222222,0.16294005882551327,-0.635,0.94,-0.425,0,100
-0.3347777777777778,0.20499987955431573,-0.575,1.2,-0.355,0,100
-0.35962500000000003,0.17087295780296344,-0.62,1.015,-0.375,0,100
-0.347875,0.16068602385985187,-0.605,0.925,-0.365,0,100
-0.3706249999999999,0.18055534989304525,-0.63,0.965,-0.375,0,100
-0.348125,0.18447944311102946,-0.625,1.13,-0.365,0,100
-0.32045833333333335,0.17135286347022172,-0.595,1.06,-0.345,0,100
-0.33223611111111107,0.1588069664242616,-0.605,0.965,-0.345,0,100
-0.36754166666666666,0.15815735286065233,-0.63,0.95,-0.37,0,100
-0.3277638888888889,0.180623341442255,-0.58,1.135,-0.355,0,100
-0.29570833333333335,0.17558034228586702,-0.605,1.13,-0.315,0,100
-0.29991666666666666,0.1678540826299901,-0.575,1.04,-0.315,0,100
-0.36304166666666665,0.1692884977962505,-0.615,0.97,-0.37,0,100
-0.3346388888888889,0.17312128901402202,-0.585,1.055,-0.365,0,100
-0.30109722222222224,0.18100331179614598,-0.565,1.17,-0.32,0,100
-0.2860694444444444,0.16931490437683214,-0.55,1.075,-0.31,0,100
-0.31454166666666666,0.16066830371745527,-0.56,0.98,-0.325,0,100
-0.30852777777777773,0.17283638475466248,-0.565,1.075,-0.3375,0,100
-0.22247222222222224,0.22534479582669054,-0.485,1.37,-0.255,0,100
-0.22318055555555555,0.17521204030076823,-0.485,1.19,-0.245,0,100
-0.29427777777777775,0.17390540390158335,-0.55,0.955,-0.32,0,100
-0.3395,0.16512083117792525,-0.59,0.995,-0.36,0,100
-0.2372916666666667,0.16120496248737365,-0.485,1.09,-0.265,0,100
-0.22268055555555552,0.14354769110617413,-0.495,0.98,-0.235,0,100
-0.2964305555555556,0.16636588078262998,-0.535,0.94,-0.33,0,100
-0.3594166666666666,0.20902270942544865,-0.62,1.13,-0.38,0,100
-0.3333472222222222,0.19565730810400664,-0.59,1.175,-0.3575,0,100
-0.3063055555555556,0.19038292107172447,-0.595,1.115,-0.335,0,100
-0.31590277777777775,0.15819188064940332,-0.55,0.975,-0.325,0,100
-0.30144444444444446,0.16591663643804253,-0.56,1.085,-0.335,0,100
-0.23175,0.17943156773544616,-0.475,1.24,-0.25,0,100
-0.22672222222222224,0.22291990478783466,-0.49,1.33,-0.2575,0,100
-0.2700833333333333,0.15879229532806544,-0.515,1.0,-0.28,0,100
-0.26794444444444443,0.17253444816171967,-0.52,1.06,-0.295,0,100
-0.2334027777777778,0.18056590515209414,-0.49,1.195,-0.25,0,100
-0.26156944444444447,0.1762143444146053,-0.52,1.145,-0.28,0,100
-0.3353055555555555,0.15623803410971712,-0.57,0.94,-0.345,0,100
-0.3286527777777778,0.1566832579620978,-0.54,0.995,-0.36,0,100
-0.3109444444444444,0.19077239848754682,-0.61,1.135,-0.3225,0,100
-0.33997222222222223,0.16426265994016195,-0.595,0.99,-0.355,0,100
-0.3834583333333334,0.19661983464289662,-0.635,0.95,-0.405,0,100
-0.35897222222222225,0.16709835528665798,-0.585,0.965,-0.405,0,100
-0.29761111111111105,0.18105589649144538,-0.59,1.095,-0.315,0,100
-0.29994444444444446,0.16303798883226306,-0.555,1.02,-0.32,0,100
-0.349125,0.15173441138127575,-0.605,0.88,-0.36,0,100
-0.3383611111111111,0.1581383277699513,-0.59,0.955,-0.375,0,100
-0.28731944444444446,0.19603385665554537,-0.535,1.185,-0.3,0,100
-0.31175,0.18207253972585272,-0.6,1.08,-0.33,0,100
-0.353875,0.1764134929253177,-0.65,0.93,-0.3625,0,100
-0.33155555555555555,0.19024019093481162,-0.575,1.07,-0.37,0,100
-0.2714861111111111,0.194520992372971,-0.57,1.19,-0.295,0,100
-0.2779027777777777,0.16023196377285703,-0.54,1.04,-0.29,0,100
-0.3627638888888889,0.15863983430816167,-0.61,0.865,-0.3825,0,100
-0.3744305555555556,0.15774767355115724,-0.62,0.92,-0.41,0,100
-0.3031388888888889,0.17862711825628047,-0.565,1.115,-0.3225,0,100
-0.29475,0.17426613985510783,-0.59,1.075,-0.3125,0,100
-0.3400555555555555,0.15806247788004665,-0.585,0.88,-0.35,0,100
-0.3519305555555555,0.16403957232503458,-0.62,0.965,-0.375,0,100
-0.28670833333333334,0.18283283481396637,-0.55,1.2,-0.305,0,100
-0.2947916666666667,0.16372834356369426,-0.57,1.025,-0.305,0,100
-0.34754166666666664,0.16042477793346016,-0.605,0.915,-0.37,0,100
-0.4122916666666666,0.16326345762975322,-0.675,0.85,-0.43,0,100
-0.3021666666666667,0.18215461991274212,-0.575,1.13,-0.335,0,100
-0.2630972222222222,0.18883613999989973,-0.56,1.15,-0.285,0,100
-0.30904166666666666,0.166644951710382,-0.575,0.95,-0.325,0,100
-0.38758333333333334,0.16567326864779497,-0.715,0.875,-0.39,0,100
-0.3249166666666667,0.1815676144336074,-0.555,1.155,-0.3475,0,100
-0.3054722222222222,0.1768263407525887,-0.565,1.15,-0.32,0,100
-0.30486111111111114,0.17105021237730453,-0.575,1.06,-0.33,0,100
-0.34711111111111115,0.16863418293549204,-0.635,0.925,-0.355,0,100
-0.3959166666666667,0.17084672711722243,-0.625,0.93,-0.44,1,100
-0.3312361111111111,0.19457735487286537,-0.565,1.18,-0.345,0,100
-0.3275694444444444,0.1791794434505446,-0.595,1.105,-0.35,0,100
-0.3387777777777778,0.1631956241092115,-0.58,0.98,-0.35,0,100
-0.3661388888888889,0.1667619149129444,-0.605,0.955,-0.38,0,100
-0.2956111111111111,0.17924119035809727,-0.525,1.165,-0.32,0,100
-0.29013888888888884,0.17911350417135838,-0.57,1.145,-0.31,0,100
-0.3291388888888889,0.17332758849098076,-0.575,1.015,-0.35,0,100
-0.38197222222222227,0.16672915263836188,-0.63,0.925,-0.3925,0,100
-0.28555555555555556,0.18447627737348846,-0.59,1.17,-0.33,0,100
-0.2426527777777778,0.1857525354785996,-0.495,1.22,-0.255,0,100
-0.24965277777777778,0.17325023326280772,-0.52,1.135,-0.275,0,100
-0.3258888888888889,0.18899416184072074,-0.63,1.02,-0.355,0,100
-0.36359722222222224,0.1669365864068534,-0.585,0.975,-0.39,0,100
-0.3186388888888889,0.22962670827741485,-0.595,1.3,-0.34,0,100
-0.34752777777777777,0.17957240664532806,-0.605,1.095,-0.37,0,100
-0.39531944444444445,0.1711686811297305,-0.685,0.885,-0.415,0,100
-0.4435416666666667,0.16526459739695545,-0.695,0.88,-0.455,0,100
-0.3760972222222222,0.18116552895397303,-0.7,1.115,-0.395,0,100
-0.3400972222222222,0.17199379508528645,-0.655,1.085,-0.365,0,100
-0.3535555555555555,0.1735819442166284,-0.595,0.975,-0.38,0,100
-0.4398611111111111,0.1635092000092176,-0.695,0.815,-0.44,0,100
-0.3489583333333333,0.18712432271828744,-0.575,1.09,-0.395,0,100
-0.30361111111111116,0.1817569007978908,-0.56,1.14,-0.32,0,100
-0.3001111111111111,0.16386813427905614,-0.535,1.05,-0.32,0,100
-0.35583333333333333,0.18266697080266653,-0.59,0.99,-0.36,0,100
-0.2928194444444444,0.2251241217139317,-0.545,1.2,-0.34,0,100
-0.2826666666666666,0.17092265957314012,-0.53,1.14,-0.3,0,100
-0.2818611111111111,0.18303197243131805,-0.52,1.145,-0.305,0,100
-0.3360416666666666,0.16696626717693608,-0.595,0.96,-0.345,0,100
-0.28113888888888894,0.1759066439238246,-0.53,1.105,-0.325,0,100
-0.22520833333333334,0.1887746258769965,-0.49,1.225,-0.245,0,100
-0.21130555555555552,0.1701342312287638,-0.46,1.165,-0.235,0,100
-0.3063888888888888,0.17738537422136674,-0.585,1.02,-0.33,0,100
-0.31372222222222224,0.17116116692091227,-0.545,1.075,-0.35,0,100
-0.27955555555555556,0.18122943476348252,-0.545,1.18,-0.3,0,100
-0.29681944444444447,0.17593704101095756,-0.585,1.095,-0.315,0,100
-0.34947222222222224,0.1617482588110149,-0.585,0.885,-0.375,0,100
-0.3822222222222223,0.16381071581946022,-0.65,0.93,-0.41,0,100
-0.282375,0.22701073380765255,-0.54,1.32,-0.32,0,100
-0.2841944444444444,0.17045988766413386,-0.535,1.13,-0.305,0,100
-0.336375,0.16365864181786022,-0.61,0.955,-0.36,0,100
-0.3855138888888889,0.1600401853229678,-0.64,0.9,-0.4,0,100
-0.2772361111111111,0.1876793581451232,-0.52,1.2,-0.31,0,100
-0.23779166666666668,0.18927250618413186,-0.485,1.22,-0.265,0,100
-0.2632638888888889,0.1644231493109197,-0.5,1.025,-0.2825,0,100
-0.3515833333333333,0.17637631407495358,-0.615,1.0,-0.3475,0,100
-0.30970833333333336,0.17813575016293362,-0.61,1.13,-0.33,0,100
-0.27523611111111107,0.17748869236717554,-0.585,1.15,-0.3,0,100
-0.2753611111111111,0.15862081844199985,-0.51,1.035,-0.29,0,100
-0.34802777777777777,0.1620446588154552,-0.6,0.94,-0.345,0,100
-0.30559722222222224,0.17379942620112274,-0.53,1.105,-0.34,0,100
-0.27269444444444446,0.1852819652200464,-0.54,1.175,-0.3,0,100
-0.25701388888888893,0.17244495845337912,-0.515,1.125,-0.28,0,100
-0.32618055555555553,0.16339941914666994,-0.62,0.94,-0.335,0,100
-0.28181944444444446,0.16262331444073866,-0.51,1.04,-0.325,0,100
-0.22220833333333334,0.17926252764993705,-0.53,1.245,-0.235,0,100
-0.249125,0.17457209092680182,-0.505,1.15,-0.265,0,100
-0.36219444444444443,0.20512371868980875,-0.62,0.995,-0.41,0,100
-0.4555277777777778,0.16282573952117424,-0.71,0.84,-0.4675,0,100
-0.3458611111111112,0.2090117823337263,-0.6,1.22,-0.395,0,100
-0.28720833333333334,0.178817639688843,-0.585,1.12,-0.32,0,100
-0.2785,0.1617018003060641,-0.52,1.07,-0.29,0,100
-0.34731944444444446,0.1882251773798908,-0.59,1.06,-0.35,0,100
-0.29422222222222216,0.20060036433875067,-0.52,1.235,-0.335,0,100
-0.2587638888888889,0.185322353770663,-0.59,1.2,-0.275,0,100
-0.2729722222222222,0.17512193943889354,-0.545,1.105,-0.29,0,100
-0.3326388888888889,0.1672011683866968,-0.585,0.955,-0.355,0,100
-0.35444444444444445,0.20324888197648558,-0.62,1.12,-0.39,0,100
-0.25880555555555557,0.18627403937992426,-0.5,1.255,-0.295,0,100
-0.22208333333333335,0.1754247820767256,-0.485,1.22,-0.245,0,100
-0.26055555555555554,0.16703450150001353,-0.54,1.08,-0.285,0,100
-0.35247222222222224,0.16213634285020587,-0.58,0.92,-0.35,0,100
-0.2700277777777778,0.23865042846425571,-0.535,1.315,-0.33,0,100
-0.2345277777777778,0.18692927749272084,-0.5,1.23,-0.265,0,100
-0.22258333333333333,0.17755278948964887,-0.475,1.16,-0.245,0,100
-0.2651388888888889,0.1828952573314054,-0.515,1.09,-0.29,0,100
-0.3026388888888889,0.15733318375306762,-0.56,1.0,-0.33,0,100
-0.20355555555555555,0.18396066071679026,-0.46,1.285,-0.24,0,100
-0.1775,0.16862268860124105,-0.435,1.205,-0.195,0,100
-0.2523472222222222,0.1733665160322859,-0.46,1.07,-0.28,0,100
-0.34280555555555553,0.1821592434358899,-0.58,1.035,-0.355,0,100
-0.25375,0.18986938127155847,-0.5,1.22,-0.295,0,100
-0.2563472222222222,0.1785724378168129,-0.545,1.145,-0.3,1,100
-0.2348888888888889,0.16966998650612208,-0.445,1.115,-0.25,0,100
-0.3268888888888889,0.1559154467755196,-0.575,0.93,-0.33,0,100
-0.26876388888888886,0.1730215539764688,-0.475,1.135,-0.31,0,100
-0.2306111111111111,0.17648705929547762,-0.46,1.2,-0.245,0,100
-0.2847777777777778,0.16874604705018048,-0.54,1.035,-0.305,0,100
-0.3500138888888889,0.2191265801778326,-0.585,1.085,-0.375,0,100
-0.32156944444444446,0.1751205002902675,-0.59,1.03,-0.37,0,100
-0.21973611111111108,0.1704715676077812,-0.455,1.195,-0.24,0,100
-0.2421111111111111,0.1731665508144909,-0.54,1.105,-0.26,0,100
-0.33166666666666667,0.17556496107012798,-0.595,0.97,-0.36,0,100
-0.36069444444444443,0.15901280861134787,-0.59,0.955,-0.395,0,100
-0.25751388888888893,0.19274515363957456,-0.515,1.215,-0.3,0,100
-0.23990277777777777,0.18846913685757546,-0.485,1.155,-0.26,0,100
-0.2907777777777778,0.16949747803943396,-0.56,1.01,-0.305,0,100
-0.35170833333333335,0.15922620505117868,-0.58,0.9,-0.355,0,100
-0.2994583333333333,0.1819765657608449,-0.535,1.115,-0.345,0,100
-0.2529166666666667,0.19399733317181908,-0.505,1.225,-0.27,0,100
-0.27031944444444445,0.15912380106809298,-0.51,1.05,-0.285,0,100
-0.3523194444444444,0.16341867042702254,-0.64,0.88,-0.37,0,100
-0.3105833333333333,0.16991564492091035,-0.535,1.03,-0.355,0,100
-0.2548888888888889,0.1772838711999891,-0.49,1.135,-0.27,0,100
-0.29288888888888887,0.1725494740289124,-0.53,1.06,-0.31,0,100
-0.37072222222222223,0.1555885976811767,-0.595,0.855,-0.3825,0,100
-0.3560833333333333,0.16326680192590015,-0.6,0.945,-0.4,0,100
-0.29018055555555555,0.17897480629569137,-0.525,1.17,-0.305,0,100
-0.299875,0.1716882621934301,-0.555,1.07,-0.315,0,100
-0.3660277777777778,0.16277045631998852,-0.62,0.865,-0.385,0,100
-0.39422222222222225,0.165869193963716,-0.655,0.89,-0.425,0,100
-0.2654166666666667,0.2035732020947529,-0.515,1.285,-0.31,0,100
-0.23244444444444445,0.16784416457013604,-0.51,1.14,-0.25,0,100
-0.29654166666666665,0.1652045817144441,-0.56,0.955,-0.32,0,100
-0.37379166666666663,0.1626729795137745,-0.615,0.94,-0.38,0,100
-0.30795833333333333,0.20189053947759797,-0.56,1.185,-0.34,0,100
-0.27947222222222223,0.1778088058860339,-0.55,1.085,-0.305,0,100
-0.29333333333333333,0.1710697551033236,-0.585,0.985,-0.31,0,100
-0.34684722222222225,0.15946260966500214,-0.58,0.925,-0.36,0,100
-0.3031388888888889,0.16901720043596116,-0.535,1.07,-0.335,0,100
-0.2654861111111111,0.1711549000382366,-0.535,1.14,-0.28,0,100
-0.3164444444444445,0.16868114964901554,-0.57,1.005,-0.345,0,100
-0.38563888888888886,0.19226286299661285,-0.64,1.04,-0.3925,0,100
-0.30644444444444446,0.17725804235703077,-0.555,1.11,-0.35,0,100
-0.21215277777777777,0.174807486151212,-0.47,1.195,-0.245,0,100
-0.2262777777777778,0.17762329225250073,-0.525,1.145,-0.25,0,100
-0.32459722222222226,0.22421385251351134,-0.57,1.14,-0.36,0,100
-0.35308333333333336,0.1729517233539785,-0.62,1.035,-0.385,0,100
-0.30019444444444443,0.18681234188416704,-0.585,1.16,-0.325,0,100
-0.2756388888888889,0.2129925863052225,-0.54,1.295,-0.31,0,100
-0.33308333333333334,0.1791684302238787,-0.605,1.005,-0.3525,0,100
-0.35991666666666666,0.17194796935895074,-0.61,0.99,-0.39,0,100
-0.26841666666666664,0.1939472830722594,-0.525,1.27,-0.295,0,100
-0.24869444444444444,0.18585527814291486,-0.525,1.215,-0.275,0,100
-0.237,0.17349879922735295,-0.465,1.165,-0.26,0,100
-0.3150833333333333,0.17049598805967384,-0.615,1.015,-0.315,0,100
-0.27388888888888885,0.17818183249730812,-0.52,1.185,-0.315,0,100
-0.19931944444444444,0.1851403991561306,-0.445,1.3,-0.235,0,100
-0.17319444444444446,0.1725404653736567,-0.44,1.215,-0.195,0,100
-0.24056944444444445,0.19545394643615957,-0.525,1.14,-0.265,0,100
-0.26405555555555554,0.2233630508144438,-0.535,1.255,-0.3,0,100
-0.23809722222222224,0.18484694567565157,-0.475,1.27,-0.255,0,100
-0.23636111111111113,0.1882646117654879,-0.51,1.24,-0.255,0,100
-0.2893888888888889,0.17791317760478592,-0.54,1.075,-0.31,0,100
